0.000000e+000,1.565132e-022
1.000000e-003,5.485605e-011
2.000000e-003,1.759889e-009
3.000000e-003,7.550417e-009
4.000000e-003,1.494016e-008
5.000000e-003,2.337512e-008
6.000000e-003,3.304023e-008
7.000000e-003,4.385313e-008
8.000000e-003,5.606175e-008
9.000000e-003,6.900885e-008
1.000000e-002,8.353001e-008
1.100000e-002,9.865908e-008
1.200000e-002,1.153682e-007
1.300000e-002,1.338114e-007
1.400000e-002,1.523180e-007
1.500000e-002,1.704434e-007
1.600000e-002,1.887494e-007
1.700000e-002,2.094130e-007
1.800000e-002,2.342185e-007
1.900000e-002,2.620173e-007
2.000000e-002,2.910027e-007
2.100000e-002,3.192907e-007
2.200000e-002,3.468016e-007
2.300000e-002,3.744922e-007
2.400000e-002,4.037683e-007
2.500000e-002,4.333166e-007
2.600000e-002,4.634929e-007
2.700000e-002,4.963408e-007
2.800000e-002,5.355276e-007
2.900000e-002,5.830310e-007
3.000000e-002,6.366764e-007
3.100000e-002,6.909992e-007
3.200000e-002,7.443539e-007
3.300000e-002,7.967479e-007
3.400000e-002,8.495405e-007
3.500000e-002,9.055742e-007
3.600000e-002,9.654624e-007
3.700000e-002,1.026882e-006
3.800000e-002,1.086935e-006
3.900000e-002,1.144100e-006
4.000000e-002,1.198472e-006
4.100000e-002,1.250382e-006
4.200000e-002,1.300858e-006
4.300000e-002,1.349746e-006
4.400000e-002,1.396895e-006
4.500000e-002,1.443373e-006
4.600000e-002,1.489970e-006
4.700000e-002,1.537341e-006
4.800000e-002,1.583721e-006
4.900000e-002,1.628954e-006
5.000000e-002,1.672629e-006
5.100000e-002,1.713816e-006
5.200000e-002,1.754046e-006
5.300000e-002,1.792538e-006
5.400000e-002,1.828951e-006
5.500000e-002,1.864103e-006
5.600000e-002,1.897265e-006
5.700000e-002,1.927706e-006
5.800000e-002,1.957175e-006
5.900000e-002,1.985883e-006
6.000000e-002,2.012507e-006
6.100000e-002,2.037193e-006
6.200000e-002,2.061287e-006
6.300000e-002,2.085836e-006
6.400000e-002,2.110762e-006
6.500000e-002,2.135558e-006
6.600000e-002,2.160789e-006
6.700000e-002,2.187480e-006
6.800000e-002,2.216668e-006
6.900000e-002,2.250144e-006
7.000000e-002,2.288204e-006
7.100000e-002,2.328549e-006
7.200000e-002,2.368988e-006
7.300000e-002,2.409061e-006
7.400000e-002,2.447706e-006
7.500000e-002,2.485503e-006
7.600000e-002,2.522446e-006
7.700000e-002,2.556791e-006
7.800000e-002,2.588136e-006
7.900000e-002,2.617779e-006
8.000000e-002,2.645544e-006
8.100000e-002,2.671027e-006
8.200000e-002,2.696231e-006
8.300000e-002,2.721918e-006
8.400000e-002,2.746863e-006
8.500000e-002,2.769924e-006
8.600000e-002,2.790868e-006
8.700000e-002,2.810313e-006
8.800000e-002,2.829625e-006
8.900000e-002,2.849203e-006
9.000000e-002,2.866261e-006
9.100000e-002,2.880571e-006
9.200000e-002,2.893589e-006
9.300000e-002,2.906243e-006
9.400000e-002,2.917029e-006
9.500000e-002,2.926388e-006
9.600000e-002,2.933063e-006
9.700000e-002,2.936390e-006
9.800000e-002,2.937227e-006
9.900000e-002,2.936325e-006
1.000000e-001,2.934082e-006
1.010000e-001,2.929566e-006
1.020000e-001,2.923296e-006
1.030000e-001,2.915451e-006
1.040000e-001,2.907305e-006
1.050000e-001,2.898941e-006
1.060000e-001,2.888229e-006
1.070000e-001,2.875243e-006
1.080000e-001,2.859888e-006
1.090000e-001,2.841900e-006
1.100000e-001,2.822005e-006
1.110000e-001,2.801371e-006
1.120000e-001,2.782097e-006
1.130000e-001,2.764285e-006
1.140000e-001,2.746289e-006
1.150000e-001,2.729799e-006
1.160000e-001,2.719714e-006
1.170000e-001,2.712738e-006
1.180000e-001,2.705605e-006
1.190000e-001,2.697584e-006
1.200000e-001,2.688155e-006
1.210000e-001,2.677085e-006
1.220000e-001,2.664627e-006
1.230000e-001,2.649702e-006
1.240000e-001,2.634037e-006
1.250000e-001,2.619008e-006
1.260000e-001,2.604702e-006
1.270000e-001,2.593717e-006
1.280000e-001,2.588261e-006
1.290000e-001,2.594074e-006
1.300000e-001,2.611815e-006
1.310000e-001,2.642908e-006
1.320000e-001,2.686757e-006
1.330000e-001,2.731581e-006
1.340000e-001,2.776745e-006
1.350000e-001,2.829393e-006
1.360000e-001,2.884393e-006
1.370000e-001,2.936241e-006
1.380000e-001,2.986935e-006
1.390000e-001,3.037150e-006
1.400000e-001,3.085994e-006
1.410000e-001,3.136877e-006
1.420000e-001,3.193802e-006
1.430000e-001,3.253637e-006
1.440000e-001,3.314106e-006
1.450000e-001,3.378611e-006
1.460000e-001,3.449149e-006
1.470000e-001,3.534338e-006
1.480000e-001,3.632178e-006
1.490000e-001,3.736443e-006
1.500000e-001,3.851118e-006
1.510000e-001,3.976392e-006
1.520000e-001,4.104880e-006
1.530000e-001,4.230699e-006
1.540000e-001,4.349485e-006
1.550000e-001,4.467889e-006
1.560000e-001,4.593418e-006
1.570000e-001,4.724993e-006
1.580000e-001,4.860384e-006
1.590000e-001,5.012194e-006
1.600000e-001,5.192843e-006
1.610000e-001,5.412224e-006
1.620000e-001,5.686021e-006
1.630000e-001,6.007492e-006
1.640000e-001,6.349068e-006
1.650000e-001,6.693964e-006
1.660000e-001,7.031891e-006
1.670000e-001,7.374268e-006
1.680000e-001,7.724576e-006
1.690000e-001,8.068945e-006
1.700000e-001,8.404873e-006
1.710000e-001,8.740799e-006
1.720000e-001,9.083480e-006
1.730000e-001,9.441446e-006
1.740000e-001,9.842812e-006
1.750000e-001,1.029107e-005
1.760000e-001,1.075209e-005
1.770000e-001,1.119646e-005
1.780000e-001,1.162977e-005
1.790000e-001,1.205426e-005
1.800000e-001,1.247129e-005
1.810000e-001,1.289102e-005
1.820000e-001,1.331724e-005
1.830000e-001,1.376246e-005
1.840000e-001,1.421585e-005
1.850000e-001,1.466789e-005
1.860000e-001,1.510514e-005
1.870000e-001,1.551147e-005
1.880000e-001,1.589367e-005
1.890000e-001,1.626096e-005
1.900000e-001,1.661299e-005
1.910000e-001,1.696441e-005
1.920000e-001,1.732954e-005
1.930000e-001,1.771356e-005
1.940000e-001,1.811185e-005
1.950000e-001,1.851129e-005
1.960000e-001,1.891524e-005
1.970000e-001,1.932115e-005
1.980000e-001,1.972992e-005
1.990000e-001,2.014176e-005
2.000000e-001,2.053779e-005
2.010000e-001,2.090689e-005
2.020000e-001,2.125194e-005
2.030000e-001,2.156608e-005
2.040000e-001,2.184750e-005
2.050000e-001,2.209714e-005
2.060000e-001,2.232864e-005
2.070000e-001,2.255170e-005
2.080000e-001,2.276188e-005
2.090000e-001,2.294417e-005
2.100000e-001,2.310441e-005
2.110000e-001,2.326571e-005
2.120000e-001,2.342139e-005
2.130000e-001,2.356690e-005
2.140000e-001,2.371568e-005
2.150000e-001,2.384956e-005
2.160000e-001,2.396347e-005
2.170000e-001,2.407707e-005
2.180000e-001,2.419203e-005
2.190000e-001,2.429033e-005
2.200000e-001,2.436231e-005
2.210000e-001,2.441611e-005
2.220000e-001,2.445819e-005
2.230000e-001,2.448338e-005
2.240000e-001,2.449713e-005
2.250000e-001,2.449094e-005
2.260000e-001,2.445717e-005
2.270000e-001,2.440503e-005
2.280000e-001,2.435509e-005
2.290000e-001,2.431798e-005
2.300000e-001,2.427759e-005
2.310000e-001,2.421950e-005
2.320000e-001,2.414267e-005
2.330000e-001,2.404335e-005
2.340000e-001,2.391644e-005
2.350000e-001,2.376501e-005
2.360000e-001,2.359222e-005
2.370000e-001,2.339598e-005
2.380000e-001,2.318430e-005
2.390000e-001,2.296734e-005
2.400000e-001,2.274230e-005
2.410000e-001,2.250724e-005
2.420000e-001,2.226565e-005
2.430000e-001,2.201097e-005
2.440000e-001,2.173507e-005
2.450000e-001,2.144738e-005
2.460000e-001,2.115113e-005
2.470000e-001,2.083782e-005
2.480000e-001,2.050872e-005
2.490000e-001,2.016950e-005
2.500000e-001,1.981529e-005
2.510000e-001,1.946078e-005
2.520000e-001,1.914856e-005
2.530000e-001,1.887056e-005
2.540000e-001,1.860078e-005
2.550000e-001,1.834979e-005
2.560000e-001,1.808681e-005
2.570000e-001,1.780202e-005
2.580000e-001,1.750338e-005
2.590000e-001,1.720201e-005
2.600000e-001,1.691535e-005
2.610000e-001,1.665899e-005
2.620000e-001,1.642223e-005
2.630000e-001,1.618839e-005
2.640000e-001,1.596550e-005
2.650000e-001,1.573806e-005
2.660000e-001,1.550098e-005
2.670000e-001,1.524738e-005
2.680000e-001,1.497760e-005
2.690000e-001,1.469784e-005
2.700000e-001,1.440572e-005
2.710000e-001,1.410328e-005
2.720000e-001,1.379245e-005
2.730000e-001,1.346575e-005
2.740000e-001,1.312302e-005
2.750000e-001,1.278054e-005
2.760000e-001,1.246258e-005
2.770000e-001,1.215539e-005
2.780000e-001,1.184231e-005
2.790000e-001,1.153525e-005
2.800000e-001,1.123853e-005
2.810000e-001,1.093988e-005
2.820000e-001,1.063149e-005
2.830000e-001,1.031690e-005
2.840000e-001,9.999348e-006
2.850000e-001,9.682015e-006
2.860000e-001,9.361888e-006
2.870000e-001,9.036664e-006
2.880000e-001,8.702510e-006
2.890000e-001,8.365043e-006
2.900000e-001,8.035482e-006
2.910000e-001,7.712363e-006
2.920000e-001,7.401205e-006
2.930000e-001,7.098247e-006
2.940000e-001,6.792645e-006
2.950000e-001,6.495761e-006
2.960000e-001,6.200453e-006
2.970000e-001,5.917596e-006
2.980000e-001,5.660756e-006
2.990000e-001,5.411667e-006
3.000000e-001,5.169462e-006
3.010000e-001,4.947632e-006
3.020000e-001,4.739704e-006
3.030000e-001,4.530969e-006
3.040000e-001,4.322520e-006
3.050000e-001,4.133715e-006
3.060000e-001,3.964632e-006
3.070000e-001,3.802646e-006
3.080000e-001,3.651041e-006
3.090000e-001,3.495328e-006
3.100000e-001,3.341609e-006
3.110000e-001,3.200719e-006
3.120000e-001,3.048585e-006
3.130000e-001,2.879693e-006
3.140000e-001,2.697224e-006
3.150000e-001,2.507180e-006
3.160000e-001,2.325127e-006
3.170000e-001,2.155462e-006
3.180000e-001,1.987535e-006
3.190000e-001,1.842933e-006
3.200000e-001,1.723784e-006
3.210000e-001,1.608359e-006
3.220000e-001,1.504541e-006
3.230000e-001,1.413744e-006
3.240000e-001,1.330481e-006
3.250000e-001,1.240484e-006
3.260000e-001,1.140861e-006
3.270000e-001,1.033151e-006
3.280000e-001,9.122795e-007
3.290000e-001,7.779665e-007
3.300000e-001,6.336058e-007
3.310000e-001,4.901613e-007
3.320000e-001,3.468501e-007
3.330000e-001,1.947064e-007
3.340000e-001,3.479841e-008
3.350000e-001,-1.321436e-007
3.360000e-001,-2.943913e-007
3.370000e-001,-4.491800e-007
3.380000e-001,-6.069219e-007
3.390000e-001,-7.678758e-007
3.400000e-001,-9.277241e-007
3.410000e-001,-1.086872e-006
3.420000e-001,-1.253032e-006
3.430000e-001,-1.421868e-006
3.440000e-001,-1.591870e-006
3.450000e-001,-1.765148e-006
3.460000e-001,-1.943706e-006
3.470000e-001,-2.133598e-006
3.480000e-001,-2.336808e-006
3.490000e-001,-2.549051e-006
3.500000e-001,-2.761979e-006
3.510000e-001,-2.967254e-006
3.520000e-001,-3.161002e-006
3.530000e-001,-3.342377e-006
3.540000e-001,-3.522932e-006
3.550000e-001,-3.695913e-006
3.560000e-001,-3.863625e-006
3.570000e-001,-4.014863e-006
3.580000e-001,-4.147909e-006
3.590000e-001,-4.289290e-006
3.600000e-001,-4.441075e-006
3.610000e-001,-4.596330e-006
3.620000e-001,-4.747939e-006
3.630000e-001,-4.904727e-006
3.640000e-001,-5.067348e-006
3.650000e-001,-5.234568e-006
3.660000e-001,-5.401964e-006
3.670000e-001,-5.572774e-006
3.680000e-001,-5.742890e-006
3.690000e-001,-5.908341e-006
3.700000e-001,-6.061786e-006
3.710000e-001,-6.185850e-006
3.720000e-001,-6.267367e-006
3.730000e-001,-6.334172e-006
3.740000e-001,-6.406181e-006
3.750000e-001,-6.480844e-006
3.760000e-001,-6.554415e-006
3.770000e-001,-6.629604e-006
3.780000e-001,-6.703027e-006
3.790000e-001,-6.760281e-006
3.800000e-001,-6.790881e-006
3.810000e-001,-6.801074e-006
3.820000e-001,-6.804970e-006
3.830000e-001,-6.819192e-006
3.840000e-001,-6.845459e-006
3.850000e-001,-6.879208e-006
3.860000e-001,-6.899077e-006
3.870000e-001,-6.899382e-006
3.880000e-001,-6.899597e-006
3.890000e-001,-6.909045e-006
3.900000e-001,-6.931674e-006
3.910000e-001,-6.965396e-006
3.920000e-001,-7.011551e-006
3.930000e-001,-7.070181e-006
3.940000e-001,-7.135727e-006
3.950000e-001,-7.212241e-006
3.960000e-001,-7.291199e-006
3.970000e-001,-7.357974e-006
3.980000e-001,-7.423898e-006
3.990000e-001,-7.498485e-006
4.000000e-001,-7.584700e-006
4.010000e-001,-7.678228e-006
4.020000e-001,-7.767017e-006
4.030000e-001,-7.851383e-006
4.040000e-001,-7.922243e-006
4.050000e-001,-7.985709e-006
4.060000e-001,-8.055600e-006
4.070000e-001,-8.124420e-006
4.080000e-001,-8.174563e-006
4.090000e-001,-8.206600e-006
4.100000e-001,-8.239783e-006
4.110000e-001,-8.277056e-006
4.120000e-001,-8.320823e-006
4.130000e-001,-8.348432e-006
4.140000e-001,-8.352757e-006
4.150000e-001,-8.358647e-006
4.160000e-001,-8.368044e-006
4.170000e-001,-8.380783e-006
4.180000e-001,-8.401301e-006
4.190000e-001,-8.432102e-006
4.200000e-001,-8.477118e-006
4.210000e-001,-8.530730e-006
4.220000e-001,-8.590063e-006
4.230000e-001,-8.656983e-006
4.240000e-001,-8.725090e-006
4.250000e-001,-8.800612e-006
4.260000e-001,-8.887379e-006
4.270000e-001,-8.982821e-006
4.280000e-001,-9.080477e-006
4.290000e-001,-9.176404e-006
4.300000e-001,-9.281556e-006
4.310000e-001,-9.395081e-006
4.320000e-001,-9.512821e-006
4.330000e-001,-9.630824e-006
4.340000e-001,-9.750951e-006
4.350000e-001,-9.879063e-006
4.360000e-001,-1.000642e-005
4.370000e-001,-1.012907e-005
4.380000e-001,-1.024057e-005
4.390000e-001,-1.033699e-005
4.400000e-001,-1.042259e-005
4.410000e-001,-1.049093e-005
4.420000e-001,-1.054741e-005
4.430000e-001,-1.060424e-005
4.440000e-001,-1.066556e-005
4.450000e-001,-1.073419e-005
4.460000e-001,-1.081118e-005
4.470000e-001,-1.089917e-005
4.480000e-001,-1.099774e-005
4.490000e-001,-1.110496e-005
4.500000e-001,-1.121846e-005
4.510000e-001,-1.133698e-005
4.520000e-001,-1.145836e-005
4.530000e-001,-1.158189e-005
4.540000e-001,-1.171144e-005
4.550000e-001,-1.184389e-005
4.560000e-001,-1.197872e-005
4.570000e-001,-1.211515e-005
4.580000e-001,-1.225235e-005
4.590000e-001,-1.238978e-005
4.600000e-001,-1.253019e-005
4.610000e-001,-1.267731e-005
4.620000e-001,-1.282847e-005
4.630000e-001,-1.297933e-005
4.640000e-001,-1.312738e-005
4.650000e-001,-1.327288e-005
4.660000e-001,-1.341806e-005
4.670000e-001,-1.356574e-005
4.680000e-001,-1.371617e-005
4.690000e-001,-1.386624e-005
4.700000e-001,-1.401427e-005
4.710000e-001,-1.416295e-005
4.720000e-001,-1.431437e-005
4.730000e-001,-1.446907e-005
4.740000e-001,-1.462700e-005
4.750000e-001,-1.478850e-005
4.760000e-001,-1.495123e-005
4.770000e-001,-1.511366e-005
4.780000e-001,-1.527750e-005
4.790000e-001,-1.544222e-005
4.800000e-001,-1.560579e-005
4.810000e-001,-1.576805e-005
4.820000e-001,-1.592762e-005
4.830000e-001,-1.608624e-005
4.840000e-001,-1.624446e-005
4.850000e-001,-1.640171e-005
4.860000e-001,-1.655855e-005
4.870000e-001,-1.671237e-005
4.880000e-001,-1.686078e-005
4.890000e-001,-1.700586e-005
4.900000e-001,-1.714572e-005
4.910000e-001,-1.728147e-005
4.920000e-001,-1.741489e-005
4.930000e-001,-1.754580e-005
4.940000e-001,-1.767539e-005
4.950000e-001,-1.780041e-005
4.960000e-001,-1.792110e-005
4.970000e-001,-1.803914e-005
4.980000e-001,-1.815331e-005
4.990000e-001,-1.826164e-005
5.000000e-001,-1.836221e-005
5.010000e-001,-1.845447e-005
5.020000e-001,-1.854020e-005
5.030000e-001,-1.862019e-005
5.040000e-001,-1.869281e-005
5.050000e-001,-1.875983e-005
5.060000e-001,-1.882667e-005
5.070000e-001,-1.889282e-005
5.080000e-001,-1.895856e-005
5.090000e-001,-1.902412e-005
5.100000e-001,-1.908769e-005
5.110000e-001,-1.914773e-005
5.120000e-001,-1.920578e-005
5.130000e-001,-1.926303e-005
5.140000e-001,-1.931981e-005
5.150000e-001,-1.937660e-005
5.160000e-001,-1.943013e-005
5.170000e-001,-1.947954e-005
5.180000e-001,-1.952732e-005
5.190000e-001,-1.957301e-005
5.200000e-001,-1.961425e-005
5.210000e-001,-1.965370e-005
5.220000e-001,-1.969201e-005
5.230000e-001,-1.972902e-005
5.240000e-001,-1.976354e-005
5.250000e-001,-1.979461e-005
5.260000e-001,-1.982386e-005
5.270000e-001,-1.985143e-005
5.280000e-001,-1.987786e-005
5.290000e-001,-1.990370e-005
5.300000e-001,-1.992820e-005
5.310000e-001,-1.995124e-005
5.320000e-001,-1.997242e-005
5.330000e-001,-1.999073e-005
5.340000e-001,-2.000486e-005
5.350000e-001,-2.001166e-005
5.360000e-001,-2.000972e-005
5.370000e-001,-1.999761e-005
5.380000e-001,-1.997644e-005
5.390000e-001,-1.994977e-005
5.400000e-001,-1.991915e-005
5.410000e-001,-1.988493e-005
5.420000e-001,-1.984850e-005
5.430000e-001,-1.981250e-005
5.440000e-001,-1.977696e-005
5.450000e-001,-1.974094e-005
5.460000e-001,-1.970508e-005
5.470000e-001,-1.966966e-005
5.480000e-001,-1.963453e-005
5.490000e-001,-1.959683e-005
5.500000e-001,-1.955151e-005
5.510000e-001,-1.949623e-005
5.520000e-001,-1.943072e-005
5.530000e-001,-1.935593e-005
5.540000e-001,-1.927432e-005
5.550000e-001,-1.918944e-005
5.560000e-001,-1.910095e-005
5.570000e-001,-1.900838e-005
5.580000e-001,-1.891244e-005
5.590000e-001,-1.881315e-005
5.600000e-001,-1.871104e-005
5.610000e-001,-1.860802e-005
5.620000e-001,-1.850485e-005
5.630000e-001,-1.840135e-005
5.640000e-001,-1.829748e-005
5.650000e-001,-1.819361e-005
5.660000e-001,-1.809001e-005
5.670000e-001,-1.798634e-005
5.680000e-001,-1.788342e-005
5.690000e-001,-1.778236e-005
5.700000e-001,-1.768285e-005
5.710000e-001,-1.758372e-005
5.720000e-001,-1.748593e-005
5.730000e-001,-1.738967e-005
5.740000e-001,-1.729294e-005
5.750000e-001,-1.719640e-005
5.760000e-001,-1.710147e-005
5.770000e-001,-1.700807e-005
5.780000e-001,-1.691589e-005
5.790000e-001,-1.682353e-005
5.800000e-001,-1.673053e-005
5.810000e-001,-1.663745e-005
5.820000e-001,-1.654477e-005
5.830000e-001,-1.645138e-005
5.840000e-001,-1.635709e-005
5.850000e-001,-1.626349e-005
5.860000e-001,-1.617158e-005
5.870000e-001,-1.608010e-005
5.880000e-001,-1.598659e-005
5.890000e-001,-1.589042e-005
5.900000e-001,-1.579270e-005
5.910000e-001,-1.569422e-005
5.920000e-001,-1.559648e-005
5.930000e-001,-1.549924e-005
5.940000e-001,-1.540250e-005
5.950000e-001,-1.530584e-005
5.960000e-001,-1.520836e-005
5.970000e-001,-1.511197e-005
5.980000e-001,-1.501602e-005
5.990000e-001,-1.491947e-005
6.000000e-001,-1.482407e-005
6.010000e-001,-1.472949e-005
6.020000e-001,-1.463298e-005
6.030000e-001,-1.453431e-005
6.040000e-001,-1.443423e-005
6.050000e-001,-1.433076e-005
6.060000e-001,-1.422336e-005
6.070000e-001,-1.411523e-005
6.080000e-001,-1.400758e-005
6.090000e-001,-1.390037e-005
6.100000e-001,-1.379139e-005
6.110000e-001,-1.367881e-005
6.120000e-001,-1.355978e-005
6.130000e-001,-1.343389e-005
6.140000e-001,-1.330630e-005
6.150000e-001,-1.318090e-005
6.160000e-001,-1.305727e-005
6.170000e-001,-1.293270e-005
6.180000e-001,-1.280781e-005
6.190000e-001,-1.268484e-005
6.200000e-001,-1.256380e-005
6.210000e-001,-1.244473e-005
6.220000e-001,-1.232710e-005
6.230000e-001,-1.221188e-005
6.240000e-001,-1.209895e-005
6.250000e-001,-1.198699e-005
6.260000e-001,-1.187346e-005
6.270000e-001,-1.175957e-005
6.280000e-001,-1.164819e-005
6.290000e-001,-1.153784e-005
6.300000e-001,-1.142853e-005
6.310000e-001,-1.132134e-005
6.320000e-001,-1.121459e-005
6.330000e-001,-1.110822e-005
6.340000e-001,-1.100321e-005
6.350000e-001,-1.090033e-005
6.360000e-001,-1.079739e-005
6.370000e-001,-1.069212e-005
6.380000e-001,-1.058453e-005
6.390000e-001,-1.047458e-005
6.400000e-001,-1.036278e-005
6.410000e-001,-1.024864e-005
6.420000e-001,-1.013512e-005
6.430000e-001,-1.002401e-005
6.440000e-001,-9.915004e-006
6.450000e-001,-9.806452e-006
6.460000e-001,-9.697977e-006
6.470000e-001,-9.589713e-006
6.480000e-001,-9.481238e-006
6.490000e-001,-9.370846e-006
6.500000e-001,-9.261517e-006
6.510000e-001,-9.153233e-006
6.520000e-001,-9.045205e-006
6.530000e-001,-8.940015e-006
6.540000e-001,-8.837759e-006
6.550000e-001,-8.738329e-006
6.560000e-001,-8.640038e-006
6.570000e-001,-8.541071e-006
6.580000e-001,-8.440503e-006
6.590000e-001,-8.339500e-006
6.600000e-001,-8.236947e-006
6.610000e-001,-8.134019e-006
6.620000e-001,-8.031997e-006
6.630000e-001,-7.929632e-006
6.640000e-001,-7.828358e-006
6.650000e-001,-7.728361e-006
6.660000e-001,-7.629741e-006
6.670000e-001,-7.532485e-006
6.680000e-001,-7.437014e-006
6.690000e-001,-7.342869e-006
6.700000e-001,-7.249136e-006
6.710000e-001,-7.156801e-006
6.720000e-001,-7.066061e-006
6.730000e-001,-6.972257e-006
6.740000e-001,-6.873077e-006
6.750000e-001,-6.770504e-006
6.760000e-001,-6.664413e-006
6.770000e-001,-6.553837e-006
6.780000e-001,-6.440936e-006
6.790000e-001,-6.328278e-006
6.800000e-001,-6.213507e-006
6.810000e-001,-6.096131e-006
6.820000e-001,-5.977287e-006
6.830000e-001,-5.855536e-006
6.840000e-001,-5.729076e-006
6.850000e-001,-5.599846e-006
6.860000e-001,-5.470577e-006
6.870000e-001,-5.342423e-006
6.880000e-001,-5.218455e-006
6.890000e-001,-5.096826e-006
6.900000e-001,-4.975386e-006
6.910000e-001,-4.856395e-006
6.920000e-001,-4.740592e-006
6.930000e-001,-4.627680e-006
6.940000e-001,-4.518343e-006
6.950000e-001,-4.410583e-006
6.960000e-001,-4.303281e-006
6.970000e-001,-4.199511e-006
6.980000e-001,-4.099806e-006
6.990000e-001,-4.003923e-006
7.000000e-001,-3.912163e-006
7.010000e-001,-3.823687e-006
7.020000e-001,-3.736290e-006
7.030000e-001,-3.650885e-006
7.040000e-001,-3.568048e-006
7.050000e-001,-3.487142e-006
7.060000e-001,-3.409089e-006
7.070000e-001,-3.332514e-006
7.080000e-001,-3.258951e-006
7.090000e-001,-3.187820e-006
7.100000e-001,-3.118778e-006
7.110000e-001,-3.052029e-006
7.120000e-001,-2.987321e-006
7.130000e-001,-2.923774e-006
7.140000e-001,-2.860027e-006
7.150000e-001,-2.795748e-006
7.160000e-001,-2.728431e-006
7.170000e-001,-2.653614e-006
7.180000e-001,-2.568928e-006
7.190000e-001,-2.476932e-006
7.200000e-001,-2.385196e-006
7.210000e-001,-2.293653e-006
7.220000e-001,-2.201780e-006
7.230000e-001,-2.109068e-006
7.240000e-001,-2.012750e-006
7.250000e-001,-1.915613e-006
7.260000e-001,-1.822106e-006
7.270000e-001,-1.731593e-006
7.280000e-001,-1.641619e-006
7.290000e-001,-1.552083e-006
7.300000e-001,-1.462351e-006
7.310000e-001,-1.368584e-006
7.320000e-001,-1.259374e-006
7.330000e-001,-1.138036e-006
7.340000e-001,-1.013276e-006
7.350000e-001,-8.844786e-007
7.360000e-001,-7.542656e-007
7.370000e-001,-6.241034e-007
7.380000e-001,-4.979940e-007
7.390000e-001,-3.676471e-007
7.400000e-001,-2.247342e-007
7.410000e-001,-7.119482e-008
7.420000e-001,8.908417e-008
7.430000e-001,2.559054e-007
7.440000e-001,4.270398e-007
7.450000e-001,5.976792e-007
7.460000e-001,7.628124e-007
7.470000e-001,9.238541e-007
7.480000e-001,1.089172e-006
7.490000e-001,1.265543e-006
7.500000e-001,1.460095e-006
7.510000e-001,1.668676e-006
7.520000e-001,1.877947e-006
7.530000e-001,2.090928e-006
7.540000e-001,2.314752e-006
7.550000e-001,2.552833e-006
7.560000e-001,2.809715e-006
7.570000e-001,3.070682e-006
7.580000e-001,3.319743e-006
7.590000e-001,3.556359e-006
7.600000e-001,3.787171e-006
7.610000e-001,4.025191e-006
7.620000e-001,4.262704e-006
7.630000e-001,4.488434e-006
7.640000e-001,4.707462e-006
7.650000e-001,4.920202e-006
7.660000e-001,5.139081e-006
7.670000e-001,5.389055e-006
7.680000e-001,5.679947e-006
7.690000e-001,5.998391e-006
7.700000e-001,6.338592e-006
7.710000e-001,6.688651e-006
7.720000e-001,7.041393e-006
7.730000e-001,7.406477e-006
7.740000e-001,7.777691e-006
7.750000e-001,8.163233e-006
7.760000e-001,8.560002e-006
7.770000e-001,8.957500e-006
7.780000e-001,9.357515e-006
7.790000e-001,9.776643e-006
7.800000e-001,1.022859e-005
7.810000e-001,1.069846e-005
7.820000e-001,1.117872e-005
7.830000e-001,1.165637e-005
7.840000e-001,1.211414e-005
7.850000e-001,1.255101e-005
7.860000e-001,1.296130e-005
7.870000e-001,1.335335e-005
7.880000e-001,1.373983e-005
7.890000e-001,1.413355e-005
7.900000e-001,1.453091e-005
7.910000e-001,1.494792e-005
7.920000e-001,1.535569e-005
7.930000e-001,1.573566e-005
7.940000e-001,1.609275e-005
7.950000e-001,1.642919e-005
7.960000e-001,1.676609e-005
7.970000e-001,1.710868e-005
7.980000e-001,1.745706e-005
7.990000e-001,1.781704e-005
8.000000e-001,1.818658e-005
8.010000e-001,1.855915e-005
8.020000e-001,1.892840e-005
8.030000e-001,1.928734e-005
8.040000e-001,1.963783e-005
8.050000e-001,1.997755e-005
8.060000e-001,2.030194e-005
8.070000e-001,2.062230e-005
8.080000e-001,2.094894e-005
8.090000e-001,2.125692e-005
8.100000e-001,2.154054e-005
8.110000e-001,2.179980e-005
8.120000e-001,2.204124e-005
8.130000e-001,2.226201e-005
8.140000e-001,2.245951e-005
8.150000e-001,2.264030e-005
8.160000e-001,2.280565e-005
8.170000e-001,2.296892e-005
8.180000e-001,2.314423e-005
8.190000e-001,2.333623e-005
8.200000e-001,2.354363e-005
8.210000e-001,2.374762e-005
8.220000e-001,2.393111e-005
8.230000e-001,2.408405e-005
8.240000e-001,2.420809e-005
8.250000e-001,2.430864e-005
8.260000e-001,2.438799e-005
8.270000e-001,2.446452e-005
8.280000e-001,2.454199e-005
8.290000e-001,2.460751e-005
8.300000e-001,2.465558e-005
8.310000e-001,2.467634e-005
8.320000e-001,2.467128e-005
8.330000e-001,2.465127e-005
8.340000e-001,2.461925e-005
8.350000e-001,2.456644e-005
8.360000e-001,2.449100e-005
8.370000e-001,2.440043e-005
8.380000e-001,2.431096e-005
8.390000e-001,2.425182e-005
8.400000e-001,2.422496e-005
8.410000e-001,2.419608e-005
8.420000e-001,2.415561e-005
8.430000e-001,2.410069e-005
8.440000e-001,2.404557e-005
8.450000e-001,2.401001e-005
8.460000e-001,2.399434e-005
8.470000e-001,2.400283e-005
8.480000e-001,2.401095e-005
8.490000e-001,2.399636e-005
8.500000e-001,2.395406e-005
8.510000e-001,2.389491e-005
8.520000e-001,2.382032e-005
8.530000e-001,2.372574e-005
8.540000e-001,2.361854e-005
8.550000e-001,2.349532e-005
8.560000e-001,2.335026e-005
8.570000e-001,2.319399e-005
8.580000e-001,2.302989e-005
8.590000e-001,2.285007e-005
8.600000e-001,2.265255e-005
8.610000e-001,2.244771e-005
8.620000e-001,2.225042e-005
8.630000e-001,2.205462e-005
8.640000e-001,2.185903e-005
8.650000e-001,2.167637e-005
8.660000e-001,2.151031e-005
8.670000e-001,2.134821e-005
8.680000e-001,2.119226e-005
8.690000e-001,2.104056e-005
8.700000e-001,2.087077e-005
8.710000e-001,2.068094e-005
8.720000e-001,2.047505e-005
8.730000e-001,2.025001e-005
8.740000e-001,2.000496e-005
8.750000e-001,1.975356e-005
8.760000e-001,1.951344e-005
8.770000e-001,1.928586e-005
8.780000e-001,1.905869e-005
8.790000e-001,1.881742e-005
8.800000e-001,1.856720e-005
8.810000e-001,1.832521e-005
8.820000e-001,1.809101e-005
8.830000e-001,1.787226e-005
8.840000e-001,1.766524e-005
8.850000e-001,1.744689e-005
8.860000e-001,1.721392e-005
8.870000e-001,1.696661e-005
8.880000e-001,1.670312e-005
8.890000e-001,1.642656e-005
8.900000e-001,1.614281e-005
8.910000e-001,1.584758e-005
8.920000e-001,1.553925e-005
8.930000e-001,1.522365e-005
8.940000e-001,1.489848e-005
8.950000e-001,1.456907e-005
8.960000e-001,1.424257e-005
8.970000e-001,1.391083e-005
8.980000e-001,1.357052e-005
8.990000e-001,1.322284e-005
9.000000e-001,1.287064e-005
9.010000e-001,1.251033e-005
9.020000e-001,1.213751e-005
9.030000e-001,1.175645e-005
9.040000e-001,1.137324e-005
9.050000e-001,1.098660e-005
9.060000e-001,1.061762e-005
9.070000e-001,1.028719e-005
9.080000e-001,9.971130e-006
9.090000e-001,9.647544e-006
9.100000e-001,9.316529e-006
9.110000e-001,8.974453e-006
9.120000e-001,8.621857e-006
9.130000e-001,8.262324e-006
9.140000e-001,7.897007e-006
9.150000e-001,7.523129e-006
9.160000e-001,7.139318e-006
9.170000e-001,6.748387e-006
9.180000e-001,6.355526e-006
9.190000e-001,5.958284e-006
9.200000e-001,5.555653e-006
9.210000e-001,5.148899e-006
9.220000e-001,4.736787e-006
9.230000e-001,4.320752e-006
9.240000e-001,3.899798e-006
9.250000e-001,3.475131e-006
9.260000e-001,3.048953e-006
9.270000e-001,2.624463e-006
9.280000e-001,2.208377e-006
9.290000e-001,1.801038e-006
9.300000e-001,1.406325e-006
9.310000e-001,1.025528e-006
9.320000e-001,6.586303e-007
9.330000e-001,3.019994e-007
9.340000e-001,-4.745586e-008
9.350000e-001,-3.851441e-007
9.360000e-001,-7.060378e-007
9.370000e-001,-1.007844e-006
9.380000e-001,-1.301856e-006
9.390000e-001,-1.588467e-006
9.400000e-001,-1.859298e-006
9.410000e-001,-2.123819e-006
9.420000e-001,-2.385557e-006
9.430000e-001,-2.636479e-006
9.440000e-001,-2.851197e-006
9.450000e-001,-3.005270e-006
9.460000e-001,-3.077427e-006
9.470000e-001,-3.093323e-006
9.480000e-001,-3.093681e-006
9.490000e-001,-3.098071e-006
9.500000e-001,-3.102782e-006
9.510000e-001,-3.092729e-006
9.520000e-001,-3.060304e-006
9.530000e-001,-3.011418e-006
9.540000e-001,-2.958821e-006
9.550000e-001,-2.884211e-006
9.560000e-001,-2.751028e-006
9.570000e-001,-2.571802e-006
9.580000e-001,-2.391738e-006
9.590000e-001,-2.228765e-006
9.600000e-001,-2.078348e-006
9.610000e-001,-1.933483e-006
9.620000e-001,-1.796279e-006
9.630000e-001,-1.673511e-006
9.640000e-001,-1.562414e-006
9.650000e-001,-1.462449e-006
9.660000e-001,-1.380173e-006
9.670000e-001,-1.314475e-006
9.680000e-001,-1.261628e-006
9.690000e-001,-1.218410e-006
9.700000e-001,-1.180709e-006
9.710000e-001,-1.141966e-006
9.720000e-001,-1.109114e-006
9.730000e-001,-1.088363e-006
9.740000e-001,-1.064361e-006
9.750000e-001,-1.036811e-006
9.760000e-001,-1.017940e-006
9.770000e-001,-1.006568e-006
9.780000e-001,-9.944362e-007
9.790000e-001,-9.779795e-007
9.800000e-001,-9.586584e-007
9.810000e-001,-9.329993e-007
9.820000e-001,-9.085012e-007
9.830000e-001,-8.863204e-007
9.840000e-001,-8.669770e-007
9.850000e-001,-8.372107e-007
9.860000e-001,-7.877606e-007
9.870000e-001,-7.334121e-007
9.880000e-001,-6.900623e-007
9.890000e-001,-6.558151e-007
9.900000e-001,-6.266839e-007
9.910000e-001,-6.061685e-007
9.920000e-001,-5.817397e-007
9.930000e-001,-5.391340e-007
9.940000e-001,-5.006492e-007
9.950000e-001,-4.742184e-007
9.960000e-001,-4.526825e-007
9.970000e-001,-4.394344e-007
9.980000e-001,-4.390293e-007
9.990000e-001,-4.462078e-007
1.000000e+000,-4.646422e-007
1.001000e+000,-4.953441e-007
1.002000e+000,-5.289192e-007
1.003000e+000,-5.425953e-007
1.004000e+000,-5.268973e-007
1.005000e+000,-4.940948e-007
1.006000e+000,-4.428081e-007
1.007000e+000,-3.792416e-007
1.008000e+000,-3.191639e-007
1.009000e+000,-2.734411e-007
1.010000e+000,-2.442214e-007
1.011000e+000,-2.244688e-007
1.012000e+000,-2.020964e-007
1.013000e+000,-1.745823e-007
1.014000e+000,-1.496880e-007
1.015000e+000,-1.245680e-007
1.016000e+000,-9.114564e-008
1.017000e+000,-5.261734e-008
1.018000e+000,-1.552521e-008
1.019000e+000,1.160926e-008
1.020000e+000,2.439315e-008
1.021000e+000,2.487783e-008
1.022000e+000,1.731482e-008
1.023000e+000,3.088144e-009
1.024000e+000,-2.071234e-008
1.025000e+000,-5.606027e-008
1.026000e+000,-1.041289e-007
1.027000e+000,-1.605071e-007
1.028000e+000,-2.239967e-007
1.029000e+000,-2.957604e-007
1.030000e+000,-3.784690e-007
1.031000e+000,-4.713338e-007
1.032000e+000,-5.747412e-007
1.033000e+000,-6.881969e-007
1.034000e+000,-8.116888e-007
1.035000e+000,-9.463419e-007
1.036000e+000,-1.091146e-006
1.037000e+000,-1.244920e-006
1.038000e+000,-1.406142e-006
1.039000e+000,-1.572785e-006
1.040000e+000,-1.747098e-006
1.041000e+000,-1.927310e-006
1.042000e+000,-2.112600e-006
1.043000e+000,-2.305844e-006
1.044000e+000,-2.501699e-006
1.045000e+000,-2.697863e-006
1.046000e+000,-2.897588e-006
1.047000e+000,-3.105196e-006
1.048000e+000,-3.319317e-006
1.049000e+000,-3.537821e-006
1.050000e+000,-3.761330e-006
1.051000e+000,-3.989513e-006
1.052000e+000,-4.221208e-006
1.053000e+000,-4.455666e-006
1.054000e+000,-4.693996e-006
1.055000e+000,-4.935847e-006
1.056000e+000,-5.179361e-006
1.057000e+000,-5.425842e-006
1.058000e+000,-5.676673e-006
1.059000e+000,-5.931909e-006
1.060000e+000,-6.191012e-006
1.061000e+000,-6.452646e-006
1.062000e+000,-6.715413e-006
1.063000e+000,-6.980124e-006
1.064000e+000,-7.244816e-006
1.065000e+000,-7.506093e-006
1.066000e+000,-7.765957e-006
1.067000e+000,-8.026097e-006
1.068000e+000,-8.283389e-006
1.069000e+000,-8.537040e-006
1.070000e+000,-8.788659e-006
1.071000e+000,-9.037046e-006
1.072000e+000,-9.284308e-006
1.073000e+000,-9.528097e-006
1.074000e+000,-9.764810e-006
1.075000e+000,-9.995441e-006
1.076000e+000,-1.022269e-005
1.077000e+000,-1.044850e-005
1.078000e+000,-1.067203e-005
1.079000e+000,-1.089471e-005
1.080000e+000,-1.111603e-005
1.081000e+000,-1.133632e-005
1.082000e+000,-1.155504e-005
1.083000e+000,-1.177107e-005
1.084000e+000,-1.198142e-005
1.085000e+000,-1.218423e-005
1.086000e+000,-1.237991e-005
1.087000e+000,-1.256598e-005
1.088000e+000,-1.274096e-005
1.089000e+000,-1.290518e-005
1.090000e+000,-1.305816e-005
1.091000e+000,-1.319807e-005
1.092000e+000,-1.332647e-005
1.093000e+000,-1.344724e-005
1.094000e+000,-1.356492e-005
1.095000e+000,-1.368120e-005
1.096000e+000,-1.379464e-005
1.097000e+000,-1.390709e-005
1.098000e+000,-1.401889e-005
1.099000e+000,-1.412988e-005
1.100000e+000,-1.424012e-005
1.101000e+000,-1.434915e-005
1.102000e+000,-1.445707e-005
1.103000e+000,-1.456171e-005
1.104000e+000,-1.466099e-005
1.105000e+000,-1.475511e-005
1.106000e+000,-1.484496e-005
1.107000e+000,-1.493108e-005
1.108000e+000,-1.501324e-005
1.109000e+000,-1.508988e-005
1.110000e+000,-1.516317e-005
1.111000e+000,-1.523329e-005
1.112000e+000,-1.530068e-005
1.113000e+000,-1.536426e-005
1.114000e+000,-1.541964e-005
1.115000e+000,-1.546619e-005
1.116000e+000,-1.550654e-005
1.117000e+000,-1.554325e-005
1.118000e+000,-1.557818e-005
1.119000e+000,-1.561127e-005
1.120000e+000,-1.564159e-005
1.121000e+000,-1.566909e-005
1.122000e+000,-1.569372e-005
1.123000e+000,-1.571576e-005
1.124000e+000,-1.573494e-005
1.125000e+000,-1.575036e-005
1.126000e+000,-1.576140e-005
1.127000e+000,-1.576977e-005
1.128000e+000,-1.577700e-005
1.129000e+000,-1.578256e-005
1.130000e+000,-1.578527e-005
1.131000e+000,-1.578298e-005
1.132000e+000,-1.577505e-005
1.133000e+000,-1.576125e-005
1.134000e+000,-1.574265e-005
1.135000e+000,-1.571807e-005
1.136000e+000,-1.568566e-005
1.137000e+000,-1.564289e-005
1.138000e+000,-1.559092e-005
1.139000e+000,-1.553399e-005
1.140000e+000,-1.547042e-005
1.141000e+000,-1.539974e-005
1.142000e+000,-1.532466e-005
1.143000e+000,-1.524597e-005
1.144000e+000,-1.516487e-005
1.145000e+000,-1.508359e-005
1.146000e+000,-1.500292e-005
1.147000e+000,-1.492171e-005
1.148000e+000,-1.483952e-005
1.149000e+000,-1.475586e-005
1.150000e+000,-1.467305e-005
1.151000e+000,-1.459127e-005
1.152000e+000,-1.450944e-005
1.153000e+000,-1.442826e-005
1.154000e+000,-1.434659e-005
1.155000e+000,-1.426138e-005
1.156000e+000,-1.417343e-005
1.157000e+000,-1.408361e-005
1.158000e+000,-1.399211e-005
1.159000e+000,-1.389793e-005
1.160000e+000,-1.380120e-005
1.161000e+000,-1.370040e-005
1.162000e+000,-1.359616e-005
1.163000e+000,-1.349027e-005
1.164000e+000,-1.338330e-005
1.165000e+000,-1.327432e-005
1.166000e+000,-1.316456e-005
1.167000e+000,-1.305626e-005
1.168000e+000,-1.295036e-005
1.169000e+000,-1.284630e-005
1.170000e+000,-1.274294e-005
1.171000e+000,-1.264134e-005
1.172000e+000,-1.254098e-005
1.173000e+000,-1.244132e-005
1.174000e+000,-1.234183e-005
1.175000e+000,-1.224392e-005
1.176000e+000,-1.214818e-005
1.177000e+000,-1.205412e-005
1.178000e+000,-1.196106e-005
1.179000e+000,-1.186699e-005
1.180000e+000,-1.177116e-005
1.181000e+000,-1.167357e-005
1.182000e+000,-1.157030e-005
1.183000e+000,-1.145853e-005
1.184000e+000,-1.134043e-005
1.185000e+000,-1.121969e-005
1.186000e+000,-1.109902e-005
1.187000e+000,-1.097908e-005
1.188000e+000,-1.085643e-005
1.189000e+000,-1.072971e-005
1.190000e+000,-1.060082e-005
1.191000e+000,-1.047143e-005
1.192000e+000,-1.034163e-005
1.193000e+000,-1.021197e-005
1.194000e+000,-1.008473e-005
1.195000e+000,-9.960099e-006
1.196000e+000,-9.835555e-006
1.197000e+000,-9.710374e-006
1.198000e+000,-9.586090e-006
1.199000e+000,-9.462359e-006
1.200000e+000,-9.335558e-006
1.201000e+000,-9.203847e-006
1.202000e+000,-9.069531e-006
1.203000e+000,-8.937754e-006
1.204000e+000,-8.810210e-006
1.205000e+000,-8.686450e-006
1.206000e+000,-8.567003e-006
1.207000e+000,-8.450736e-006
1.208000e+000,-8.337599e-006
1.209000e+000,-8.227596e-006
1.210000e+000,-8.118993e-006
1.211000e+000,-8.009999e-006
1.212000e+000,-7.899826e-006
1.213000e+000,-7.788869e-006
1.214000e+000,-7.678314e-006
1.215000e+000,-7.569961e-006
1.216000e+000,-7.465599e-006
1.217000e+000,-7.364158e-006
1.218000e+000,-7.264254e-006
1.219000e+000,-7.164945e-006
1.220000e+000,-7.065238e-006
1.221000e+000,-6.962451e-006
1.222000e+000,-6.857031e-006
1.223000e+000,-6.748958e-006
1.224000e+000,-6.638971e-006
1.225000e+000,-6.529262e-006
1.226000e+000,-6.420701e-006
1.227000e+000,-6.314684e-006
1.228000e+000,-6.211208e-006
1.229000e+000,-6.109257e-006
1.230000e+000,-6.010380e-006
1.231000e+000,-5.915764e-006
1.232000e+000,-5.823996e-006
1.233000e+000,-5.734175e-006
1.234000e+000,-5.647681e-006
1.235000e+000,-5.564326e-006
1.236000e+000,-5.481684e-006
1.237000e+000,-5.399100e-006
1.238000e+000,-5.318774e-006
1.239000e+000,-5.240348e-006
1.240000e+000,-5.160860e-006
1.241000e+000,-5.082077e-006
1.242000e+000,-5.005946e-006
1.243000e+000,-4.932911e-006
1.244000e+000,-4.860257e-006
1.245000e+000,-4.786940e-006
1.246000e+000,-4.715011e-006
1.247000e+000,-4.642819e-006
1.248000e+000,-4.571202e-006
1.249000e+000,-4.501468e-006
1.250000e+000,-4.431637e-006
1.251000e+000,-4.362635e-006
1.252000e+000,-4.295999e-006
1.253000e+000,-4.232417e-006
1.254000e+000,-4.171699e-006
1.255000e+000,-4.111523e-006
1.256000e+000,-4.051160e-006
1.257000e+000,-3.990226e-006
1.258000e+000,-3.928400e-006
1.259000e+000,-3.869317e-006
1.260000e+000,-3.812756e-006
1.261000e+000,-3.758915e-006
1.262000e+000,-3.708398e-006
1.263000e+000,-3.659058e-006
1.264000e+000,-3.609398e-006
1.265000e+000,-3.561789e-006
1.266000e+000,-3.516384e-006
1.267000e+000,-3.473133e-006
1.268000e+000,-3.431607e-006
1.269000e+000,-3.391139e-006
1.270000e+000,-3.352180e-006
1.271000e+000,-3.313063e-006
1.272000e+000,-3.272826e-006
1.273000e+000,-3.234566e-006
1.274000e+000,-3.198562e-006
1.275000e+000,-3.164240e-006
1.276000e+000,-3.132079e-006
1.277000e+000,-3.102271e-006
1.278000e+000,-3.073610e-006
1.279000e+000,-3.043614e-006
1.280000e+000,-3.011087e-006
1.281000e+000,-2.977809e-006
1.282000e+000,-2.945404e-006
1.283000e+000,-2.914604e-006
1.284000e+000,-2.885894e-006
1.285000e+000,-2.858878e-006
1.286000e+000,-2.831338e-006
1.287000e+000,-2.801187e-006
1.288000e+000,-2.763565e-006
1.289000e+000,-2.717157e-006
1.290000e+000,-2.664028e-006
1.291000e+000,-2.604467e-006
1.292000e+000,-2.541712e-006
1.293000e+000,-2.478639e-006
1.294000e+000,-2.412664e-006
1.295000e+000,-2.344684e-006
1.296000e+000,-2.276864e-006
1.297000e+000,-2.201371e-006
1.298000e+000,-2.115853e-006
1.299000e+000,-2.031278e-006
1.300000e+000,-1.948961e-006
1.301000e+000,-1.862763e-006
1.302000e+000,-1.767260e-006
1.303000e+000,-1.657247e-006
1.304000e+000,-1.527759e-006
1.305000e+000,-1.384659e-006
1.306000e+000,-1.237657e-006
1.307000e+000,-1.087258e-006
1.308000e+000,-9.350642e-007
1.309000e+000,-7.867451e-007
1.310000e+000,-6.433228e-007
1.311000e+000,-5.034588e-007
1.312000e+000,-3.617461e-007
1.313000e+000,-2.203563e-007
1.314000e+000,-8.512638e-008
1.315000e+000,4.879171e-008
1.316000e+000,1.886889e-007
1.317000e+000,3.377110e-007
1.318000e+000,4.981486e-007
1.319000e+000,6.713302e-007
1.320000e+000,8.511919e-007
1.321000e+000,1.029173e-006
1.322000e+000,1.208214e-006
1.323000e+000,1.390220e-006
1.324000e+000,1.568409e-006
1.325000e+000,1.742410e-006
1.326000e+000,1.912270e-006
1.327000e+000,2.077885e-006
1.328000e+000,2.249130e-006
1.329000e+000,2.432520e-006
1.330000e+000,2.620653e-006
1.331000e+000,2.804030e-006
1.332000e+000,2.988357e-006
1.333000e+000,3.171907e-006
1.334000e+000,3.347147e-006
1.335000e+000,3.517780e-006
1.336000e+000,3.691585e-006
1.337000e+000,3.864858e-006
1.338000e+000,4.035868e-006
1.339000e+000,4.207668e-006
1.340000e+000,4.374755e-006
1.341000e+000,4.540637e-006
1.342000e+000,4.706276e-006
1.343000e+000,4.868305e-006
1.344000e+000,5.022268e-006
1.345000e+000,5.164738e-006
1.346000e+000,5.296350e-006
1.347000e+000,5.417022e-006
1.348000e+000,5.528294e-006
1.349000e+000,5.636160e-006
1.350000e+000,5.745979e-006
1.351000e+000,5.865105e-006
1.352000e+000,6.001037e-006
1.353000e+000,6.149592e-006
1.354000e+000,6.304614e-006
1.355000e+000,6.467075e-006
1.356000e+000,6.643659e-006
1.357000e+000,6.847724e-006
1.358000e+000,7.081522e-006
1.359000e+000,7.341506e-006
1.360000e+000,7.622727e-006
1.361000e+000,7.913112e-006
1.362000e+000,8.225045e-006
1.363000e+000,8.557463e-006
1.364000e+000,8.895809e-006
1.365000e+000,9.230867e-006
1.366000e+000,9.563003e-006
1.367000e+000,9.915552e-006
1.368000e+000,1.031111e-005
1.369000e+000,1.074376e-005
1.370000e+000,1.120204e-005
1.371000e+000,1.169791e-005
1.372000e+000,1.224347e-005
1.373000e+000,1.283668e-005
1.374000e+000,1.346669e-005
1.375000e+000,1.411840e-005
1.376000e+000,1.477288e-005
1.377000e+000,1.543224e-005
1.378000e+000,1.609883e-005
1.379000e+000,1.675382e-005
1.380000e+000,1.741171e-005
1.381000e+000,1.806132e-005
1.382000e+000,1.868423e-005
1.383000e+000,1.927495e-005
1.384000e+000,1.984159e-005
1.385000e+000,2.041340e-005
1.386000e+000,2.100168e-005
1.387000e+000,2.161449e-005
1.388000e+000,2.224318e-005
1.389000e+000,2.286160e-005
1.390000e+000,2.347269e-005
1.391000e+000,2.408550e-005
1.392000e+000,2.470524e-005
1.393000e+000,2.533507e-005
1.394000e+000,2.596987e-005
1.395000e+000,2.661532e-005
1.396000e+000,2.728488e-005
1.397000e+000,2.796982e-005
1.398000e+000,2.863494e-005
1.399000e+000,2.927539e-005
1.400000e+000,2.990858e-005
1.401000e+000,3.052170e-005
1.402000e+000,3.111228e-005
1.403000e+000,3.167587e-005
1.404000e+000,3.219289e-005
1.405000e+000,3.265968e-005
1.406000e+000,3.308435e-005
1.407000e+000,3.346484e-005
1.408000e+000,3.379929e-005
1.409000e+000,3.410708e-005
1.410000e+000,3.442038e-005
1.411000e+000,3.475004e-005
1.412000e+000,3.508051e-005
1.413000e+000,3.537353e-005
1.414000e+000,3.561908e-005
1.415000e+000,3.583371e-005
1.416000e+000,3.602714e-005
1.417000e+000,3.619075e-005
1.418000e+000,3.630974e-005
1.419000e+000,3.638462e-005
1.420000e+000,3.643281e-005
1.421000e+000,3.646524e-005
1.422000e+000,3.647030e-005
1.423000e+000,3.643837e-005
1.424000e+000,3.638144e-005
1.425000e+000,3.631136e-005
1.426000e+000,3.622477e-005
1.427000e+000,3.611428e-005
1.428000e+000,3.597649e-005
1.429000e+000,3.581431e-005
1.430000e+000,3.562367e-005
1.431000e+000,3.539444e-005
1.432000e+000,3.512843e-005
1.433000e+000,3.482894e-005
1.434000e+000,3.449690e-005
1.435000e+000,3.413412e-005
1.436000e+000,3.374185e-005
1.437000e+000,3.333108e-005
1.438000e+000,3.291121e-005
1.439000e+000,3.248505e-005
1.440000e+000,3.206175e-005
1.441000e+000,3.163975e-005
1.442000e+000,3.121543e-005
1.443000e+000,3.078444e-005
1.444000e+000,3.034031e-005
1.445000e+000,2.989544e-005
1.446000e+000,2.944744e-005
1.447000e+000,2.898960e-005
1.448000e+000,2.853329e-005
1.449000e+000,2.807949e-005
1.450000e+000,2.763489e-005
1.451000e+000,2.719778e-005
1.452000e+000,2.675223e-005
1.453000e+000,2.630595e-005
1.454000e+000,2.586575e-005
1.455000e+000,2.540788e-005
1.456000e+000,2.493411e-005
1.457000e+000,2.445546e-005
1.458000e+000,2.397647e-005
1.459000e+000,2.349513e-005
1.460000e+000,2.301032e-005
1.461000e+000,2.252660e-005
1.462000e+000,2.206206e-005
1.463000e+000,2.160995e-005
1.464000e+000,2.114543e-005
1.465000e+000,2.067245e-005
1.466000e+000,2.022345e-005
1.467000e+000,1.981439e-005
1.468000e+000,1.943377e-005
1.469000e+000,1.905809e-005
1.470000e+000,1.868142e-005
1.471000e+000,1.829149e-005
1.472000e+000,1.788429e-005
1.473000e+000,1.746332e-005
1.474000e+000,1.703047e-005
1.475000e+000,1.660190e-005
1.476000e+000,1.618869e-005
1.477000e+000,1.577970e-005
1.478000e+000,1.536203e-005
1.479000e+000,1.492881e-005
1.480000e+000,1.448113e-005
1.481000e+000,1.402183e-005
1.482000e+000,1.356484e-005
1.483000e+000,1.310908e-005
1.484000e+000,1.264581e-005
1.485000e+000,1.218742e-005
1.486000e+000,1.173216e-005
1.487000e+000,1.127005e-005
1.488000e+000,1.080323e-005
1.489000e+000,1.032823e-005
1.490000e+000,9.847751e-006
1.491000e+000,9.357197e-006
1.492000e+000,8.856222e-006
1.493000e+000,8.349769e-006
1.494000e+000,7.841667e-006
1.495000e+000,7.333618e-006
1.496000e+000,6.823371e-006
1.497000e+000,6.307283e-006
1.498000e+000,5.784191e-006
1.499000e+000,5.254904e-006
1.500000e+000,4.723719e-006
1.501000e+000,4.191319e-006
1.502000e+000,3.655991e-006
1.503000e+000,3.121088e-006
1.504000e+000,2.587107e-006
1.505000e+000,2.049662e-006
1.506000e+000,1.511075e-006
1.507000e+000,9.714273e-007
1.508000e+000,4.351164e-007
1.509000e+000,-9.063020e-008
1.510000e+000,-6.064890e-007
1.511000e+000,-1.120260e-006
1.512000e+000,-1.633260e-006
1.513000e+000,-2.141345e-006
1.514000e+000,-2.638904e-006
1.515000e+000,-3.123996e-006
1.516000e+000,-3.600832e-006
1.517000e+000,-4.070460e-006
1.518000e+000,-4.527430e-006
1.519000e+000,-4.976567e-006
1.520000e+000,-5.411209e-006
1.521000e+000,-5.814758e-006
1.522000e+000,-6.172436e-006
1.523000e+000,-6.476628e-006
1.524000e+000,-6.745761e-006
1.525000e+000,-6.998562e-006
1.526000e+000,-7.227469e-006
1.527000e+000,-7.447264e-006
1.528000e+000,-7.667433e-006
1.529000e+000,-7.875532e-006
1.530000e+000,-8.063324e-006
1.531000e+000,-8.233785e-006
1.532000e+000,-8.400265e-006
1.533000e+000,-8.559998e-006
1.534000e+000,-8.705172e-006
1.535000e+000,-8.838966e-006
1.536000e+000,-8.948231e-006
1.537000e+000,-9.025617e-006
1.538000e+000,-9.083108e-006
1.539000e+000,-9.135660e-006
1.540000e+000,-9.187712e-006
1.541000e+000,-9.241462e-006
1.542000e+000,-9.295664e-006
1.543000e+000,-9.357298e-006
1.544000e+000,-9.420926e-006
1.545000e+000,-9.474638e-006
1.546000e+000,-9.521181e-006
1.547000e+000,-9.569749e-006
1.548000e+000,-9.624257e-006
1.549000e+000,-9.685157e-006
1.550000e+000,-9.753764e-006
1.551000e+000,-9.826339e-006
1.552000e+000,-9.889345e-006
1.553000e+000,-9.940214e-006
1.554000e+000,-9.980956e-006
1.555000e+000,-1.000892e-005
1.556000e+000,-1.002393e-005
1.557000e+000,-1.003219e-005
1.558000e+000,-1.004456e-005
1.559000e+000,-1.006555e-005
1.560000e+000,-1.009747e-005
1.561000e+000,-1.013987e-005
1.562000e+000,-1.018965e-005
1.563000e+000,-1.024454e-005
1.564000e+000,-1.030625e-005
1.565000e+000,-1.037370e-005
1.566000e+000,-1.044726e-005
1.567000e+000,-1.052738e-005
1.568000e+000,-1.060756e-005
1.569000e+000,-1.067852e-005
1.570000e+000,-1.074135e-005
1.571000e+000,-1.080526e-005
1.572000e+000,-1.087473e-005
1.573000e+000,-1.095072e-005
1.574000e+000,-1.103374e-005
1.575000e+000,-1.111999e-005
1.576000e+000,-1.120880e-005
1.577000e+000,-1.130355e-005
1.578000e+000,-1.140493e-005
1.579000e+000,-1.151103e-005
1.580000e+000,-1.162096e-005
1.581000e+000,-1.172974e-005
1.582000e+000,-1.184040e-005
1.583000e+000,-1.195624e-005
1.584000e+000,-1.207113e-005
1.585000e+000,-1.217596e-005
1.586000e+000,-1.227090e-005
1.587000e+000,-1.235899e-005
1.588000e+000,-1.244286e-005
1.589000e+000,-1.252638e-005
1.590000e+000,-1.261057e-005
1.591000e+000,-1.269539e-005
1.592000e+000,-1.278009e-005
1.593000e+000,-1.286339e-005
1.594000e+000,-1.294860e-005
1.595000e+000,-1.303790e-005
1.596000e+000,-1.312998e-005
1.597000e+000,-1.321985e-005
1.598000e+000,-1.330582e-005
1.599000e+000,-1.339347e-005
1.600000e+000,-1.348070e-005
1.601000e+000,-1.356117e-005
1.602000e+000,-1.363866e-005
1.603000e+000,-1.371155e-005
1.604000e+000,-1.377786e-005
1.605000e+000,-1.383600e-005
1.606000e+000,-1.388447e-005
1.607000e+000,-1.392991e-005
1.608000e+000,-1.396717e-005
1.609000e+000,-1.399451e-005
1.610000e+000,-1.401780e-005
1.611000e+000,-1.403556e-005
1.612000e+000,-1.403969e-005
1.613000e+000,-1.404031e-005
1.614000e+000,-1.404504e-005
1.615000e+000,-1.405011e-005
1.616000e+000,-1.405573e-005
1.617000e+000,-1.406520e-005
1.618000e+000,-1.407585e-005
1.619000e+000,-1.408373e-005
1.620000e+000,-1.408908e-005
1.621000e+000,-1.409536e-005
1.622000e+000,-1.410308e-005
1.623000e+000,-1.411215e-005
1.624000e+000,-1.412476e-005
1.625000e+000,-1.414296e-005
1.626000e+000,-1.416438e-005
1.627000e+000,-1.418544e-005
1.628000e+000,-1.420585e-005
1.629000e+000,-1.422211e-005
1.630000e+000,-1.423828e-005
1.631000e+000,-1.425770e-005
1.632000e+000,-1.427456e-005
1.633000e+000,-1.428006e-005
1.634000e+000,-1.427807e-005
1.635000e+000,-1.427628e-005
1.636000e+000,-1.427586e-005
1.637000e+000,-1.427606e-005
1.638000e+000,-1.427729e-005
1.639000e+000,-1.428304e-005
1.640000e+000,-1.429102e-005
1.641000e+000,-1.429915e-005
1.642000e+000,-1.430916e-005
1.643000e+000,-1.432178e-005
1.644000e+000,-1.433667e-005
1.645000e+000,-1.435512e-005
1.646000e+000,-1.437595e-005
1.647000e+000,-1.439483e-005
1.648000e+000,-1.441137e-005
1.649000e+000,-1.442909e-005
1.650000e+000,-1.444869e-005
1.651000e+000,-1.446920e-005
1.652000e+000,-1.448729e-005
1.653000e+000,-1.450388e-005
1.654000e+000,-1.452170e-005
1.655000e+000,-1.453936e-005
1.656000e+000,-1.455874e-005
1.657000e+000,-1.457999e-005
1.658000e+000,-1.460039e-005
1.659000e+000,-1.462049e-005
1.660000e+000,-1.464256e-005
1.661000e+000,-1.466564e-005
1.662000e+000,-1.468847e-005
1.663000e+000,-1.470956e-005
1.664000e+000,-1.473016e-005
1.665000e+000,-1.474939e-005
1.666000e+000,-1.476497e-005
1.667000e+000,-1.477781e-005
1.668000e+000,-1.479113e-005
1.669000e+000,-1.480452e-005
1.670000e+000,-1.481635e-005
1.671000e+000,-1.482840e-005
1.672000e+000,-1.484106e-005
1.673000e+000,-1.485380e-005
1.674000e+000,-1.486611e-005
1.675000e+000,-1.487889e-005
1.676000e+000,-1.489138e-005
1.677000e+000,-1.490343e-005
1.678000e+000,-1.491354e-005
1.679000e+000,-1.492107e-005
1.680000e+000,-1.492773e-005
1.681000e+000,-1.493464e-005
1.682000e+000,-1.494168e-005
1.683000e+000,-1.494859e-005
1.684000e+000,-1.495536e-005
1.685000e+000,-1.495968e-005
1.686000e+000,-1.495730e-005
1.687000e+000,-1.494628e-005
1.688000e+000,-1.493014e-005
1.689000e+000,-1.491277e-005
1.690000e+000,-1.489432e-005
1.691000e+000,-1.487536e-005
1.692000e+000,-1.485553e-005
1.693000e+000,-1.483437e-005
1.694000e+000,-1.481281e-005
1.695000e+000,-1.479147e-005
1.696000e+000,-1.477067e-005
1.697000e+000,-1.474778e-005
1.698000e+000,-1.472168e-005
1.699000e+000,-1.469376e-005
1.700000e+000,-1.466528e-005
1.701000e+000,-1.463578e-005
1.702000e+000,-1.460175e-005
1.703000e+000,-1.456253e-005
1.704000e+000,-1.451945e-005
1.705000e+000,-1.447299e-005
1.706000e+000,-1.442330e-005
1.707000e+000,-1.437073e-005
1.708000e+000,-1.431419e-005
1.709000e+000,-1.425293e-005
1.710000e+000,-1.418807e-005
1.711000e+000,-1.412177e-005
1.712000e+000,-1.405399e-005
1.713000e+000,-1.398523e-005
1.714000e+000,-1.391420e-005
1.715000e+000,-1.383930e-005
1.716000e+000,-1.376086e-005
1.717000e+000,-1.367820e-005
1.718000e+000,-1.359321e-005
1.719000e+000,-1.350687e-005
1.720000e+000,-1.341864e-005
1.721000e+000,-1.332735e-005
1.722000e+000,-1.323035e-005
1.723000e+000,-1.312872e-005
1.724000e+000,-1.302310e-005
1.725000e+000,-1.291335e-005
1.726000e+000,-1.279935e-005
1.727000e+000,-1.268498e-005
1.728000e+000,-1.257277e-005
1.729000e+000,-1.246330e-005
1.730000e+000,-1.235468e-005
1.731000e+000,-1.224744e-005
1.732000e+000,-1.214225e-005
1.733000e+000,-1.203816e-005
1.734000e+000,-1.193544e-005
1.735000e+000,-1.183289e-005
1.736000e+000,-1.172933e-005
1.737000e+000,-1.162092e-005
1.738000e+000,-1.150721e-005
1.739000e+000,-1.138840e-005
1.740000e+000,-1.126390e-005
1.741000e+000,-1.113851e-005
1.742000e+000,-1.101479e-005
1.743000e+000,-1.089408e-005
1.744000e+000,-1.077624e-005
1.745000e+000,-1.066002e-005
1.746000e+000,-1.054580e-005
1.747000e+000,-1.043435e-005
1.748000e+000,-1.032673e-005
1.749000e+000,-1.022298e-005
1.750000e+000,-1.012117e-005
1.751000e+000,-1.002003e-005
1.752000e+000,-9.917507e-006
1.753000e+000,-9.811059e-006
1.754000e+000,-9.702662e-006
1.755000e+000,-9.592575e-006
1.756000e+000,-9.482584e-006
1.757000e+000,-9.375887e-006
1.758000e+000,-9.272224e-006
1.759000e+000,-9.171933e-006
1.760000e+000,-9.075490e-006
1.761000e+000,-8.981588e-006
1.762000e+000,-8.887556e-006
1.763000e+000,-8.792053e-006
1.764000e+000,-8.695968e-006
1.765000e+000,-8.599783e-006
1.766000e+000,-8.501492e-006
1.767000e+000,-8.404153e-006
1.768000e+000,-8.305984e-006
1.769000e+000,-8.205746e-006
1.770000e+000,-8.103911e-006
1.771000e+000,-7.995400e-006
1.772000e+000,-7.881598e-006
1.773000e+000,-7.766392e-006
1.774000e+000,-7.653022e-006
1.775000e+000,-7.540132e-006
1.776000e+000,-7.426668e-006
1.777000e+000,-7.315301e-006
1.778000e+000,-7.206905e-006
1.779000e+000,-7.100795e-006
1.780000e+000,-6.997292e-006
1.781000e+000,-6.896828e-006
1.782000e+000,-6.799042e-006
1.783000e+000,-6.702853e-006
1.784000e+000,-6.609454e-006
1.785000e+000,-6.519639e-006
1.786000e+000,-6.432395e-006
1.787000e+000,-6.345539e-006
1.788000e+000,-6.256239e-006
1.789000e+000,-6.166450e-006
1.790000e+000,-6.079148e-006
1.791000e+000,-5.994904e-006
1.792000e+000,-5.913930e-006
1.793000e+000,-5.834814e-006
1.794000e+000,-5.756980e-006
1.795000e+000,-5.678335e-006
1.796000e+000,-5.601645e-006
1.797000e+000,-5.524927e-006
1.798000e+000,-5.441739e-006
1.799000e+000,-5.350904e-006
1.800000e+000,-5.258466e-006
1.801000e+000,-5.167946e-006
1.802000e+000,-5.079066e-006
1.803000e+000,-4.988160e-006
1.804000e+000,-4.893974e-006
1.805000e+000,-4.797148e-006
1.806000e+000,-4.699698e-006
1.807000e+000,-4.603693e-006
1.808000e+000,-4.507584e-006
1.809000e+000,-4.411084e-006
1.810000e+000,-4.316405e-006
1.811000e+000,-4.222074e-006
1.812000e+000,-4.129516e-006
1.813000e+000,-4.040376e-006
1.814000e+000,-3.954216e-006
1.815000e+000,-3.870445e-006
1.816000e+000,-3.789673e-006
1.817000e+000,-3.709962e-006
1.818000e+000,-3.632757e-006
1.819000e+000,-3.559854e-006
1.820000e+000,-3.489080e-006
1.821000e+000,-3.418333e-006
1.822000e+000,-3.346931e-006
1.823000e+000,-3.276509e-006
1.824000e+000,-3.208546e-006
1.825000e+000,-3.143482e-006
1.826000e+000,-3.079968e-006
1.827000e+000,-3.016983e-006
1.828000e+000,-2.955392e-006
1.829000e+000,-2.895825e-006
1.830000e+000,-2.839404e-006
1.831000e+000,-2.784764e-006
1.832000e+000,-2.731601e-006
1.833000e+000,-2.681511e-006
1.834000e+000,-2.633947e-006
1.835000e+000,-2.586941e-006
1.836000e+000,-2.539815e-006
1.837000e+000,-2.492465e-006
1.838000e+000,-2.442947e-006
1.839000e+000,-2.391396e-006
1.840000e+000,-2.338868e-006
1.841000e+000,-2.287640e-006
1.842000e+000,-2.236792e-006
1.843000e+000,-2.187719e-006
1.844000e+000,-2.142200e-006
1.845000e+000,-2.098977e-006
1.846000e+000,-2.057954e-006
1.847000e+000,-2.018074e-006
1.848000e+000,-1.977134e-006
1.849000e+000,-1.935879e-006
1.850000e+000,-1.895584e-006
1.851000e+000,-1.855757e-006
1.852000e+000,-1.813925e-006
1.853000e+000,-1.764887e-006
1.854000e+000,-1.699414e-006
1.855000e+000,-1.610201e-006
1.856000e+000,-1.499012e-006
1.857000e+000,-1.374990e-006
1.858000e+000,-1.243725e-006
1.859000e+000,-1.106723e-006
1.860000e+000,-9.690232e-007
1.861000e+000,-8.326305e-007
1.862000e+000,-6.919644e-007
1.863000e+000,-5.430532e-007
1.864000e+000,-3.923082e-007
1.865000e+000,-2.461343e-007
1.866000e+000,-1.071762e-007
1.867000e+000,2.547415e-008
1.868000e+000,1.542167e-007
1.869000e+000,2.779716e-007
1.870000e+000,3.964474e-007
1.871000e+000,5.137922e-007
1.872000e+000,6.337533e-007
1.873000e+000,7.571072e-007
1.874000e+000,8.849626e-007
1.875000e+000,1.018728e-006
1.876000e+000,1.158449e-006
1.877000e+000,1.302781e-006
1.878000e+000,1.449750e-006
1.879000e+000,1.594919e-006
1.880000e+000,1.737184e-006
1.881000e+000,1.877750e-006
1.882000e+000,2.017322e-006
1.883000e+000,2.157984e-006
1.884000e+000,2.297380e-006
1.885000e+000,2.429859e-006
1.886000e+000,2.554872e-006
1.887000e+000,2.674803e-006
1.888000e+000,2.789677e-006
1.889000e+000,2.901386e-006
1.890000e+000,3.009627e-006
1.891000e+000,3.111974e-006
1.892000e+000,3.205769e-006
1.893000e+000,3.292710e-006
1.894000e+000,3.375403e-006
1.895000e+000,3.452379e-006
1.896000e+000,3.522150e-006
1.897000e+000,3.585649e-006
1.898000e+000,3.642463e-006
1.899000e+000,3.694079e-006
1.900000e+000,3.740703e-006
1.901000e+000,3.782498e-006
1.902000e+000,3.820796e-006
1.903000e+000,3.858634e-006
1.904000e+000,3.895960e-006
1.905000e+000,3.931720e-006
1.906000e+000,3.966467e-006
1.907000e+000,3.999754e-006
1.908000e+000,4.029430e-006
1.909000e+000,4.053243e-006
1.910000e+000,4.072129e-006
1.911000e+000,4.088066e-006
1.912000e+000,4.101784e-006
1.913000e+000,4.115830e-006
1.914000e+000,4.130659e-006
1.915000e+000,4.142955e-006
1.916000e+000,4.149981e-006
1.917000e+000,4.153086e-006
1.918000e+000,4.154993e-006
1.919000e+000,4.155512e-006
1.920000e+000,4.154429e-006
1.921000e+000,4.153047e-006
1.922000e+000,4.152605e-006
1.923000e+000,4.149665e-006
1.924000e+000,4.145040e-006
1.925000e+000,4.141512e-006
1.926000e+000,4.136891e-006
1.927000e+000,4.130444e-006
1.928000e+000,4.120644e-006
1.929000e+000,4.106609e-006
1.930000e+000,4.089607e-006
1.931000e+000,4.069009e-006
1.932000e+000,4.045664e-006
1.933000e+000,4.019787e-006
1.934000e+000,3.990823e-006
1.935000e+000,3.961684e-006
1.936000e+000,3.930380e-006
1.937000e+000,3.897349e-006
1.938000e+000,3.870319e-006
1.939000e+000,3.849486e-006
1.940000e+000,3.827621e-006
1.941000e+000,3.803380e-006
1.942000e+000,3.778399e-006
1.943000e+000,3.750116e-006
1.944000e+000,3.719782e-006
1.945000e+000,3.693121e-006
1.946000e+000,3.673168e-006
1.947000e+000,3.652163e-006
1.948000e+000,3.634423e-006
1.949000e+000,3.627858e-006
1.950000e+000,3.627566e-006
1.951000e+000,3.625869e-006
1.952000e+000,3.622873e-006
1.953000e+000,3.616721e-006
1.954000e+000,3.605696e-006
1.955000e+000,3.590997e-006
1.956000e+000,3.574765e-006
1.957000e+000,3.558809e-006
1.958000e+000,3.544121e-006
1.959000e+000,3.537902e-006
1.960000e+000,3.537018e-006
1.961000e+000,3.532830e-006
1.962000e+000,3.525479e-006
1.963000e+000,3.513900e-006
1.964000e+000,3.498307e-006
1.965000e+000,3.480828e-006
1.966000e+000,3.462952e-006
1.967000e+000,3.443440e-006
1.968000e+000,3.422357e-006
1.969000e+000,3.400674e-006
1.970000e+000,3.378322e-006
1.971000e+000,3.353941e-006
1.972000e+000,3.327306e-006
1.973000e+000,3.301723e-006
1.974000e+000,3.275903e-006
1.975000e+000,3.247144e-006
1.976000e+000,3.215715e-006
1.977000e+000,3.182061e-006
1.978000e+000,3.147206e-006
1.979000e+000,3.114583e-006
1.980000e+000,3.087170e-006
1.981000e+000,3.062418e-006
1.982000e+000,3.039493e-006
1.983000e+000,3.030686e-006
1.984000e+000,3.047203e-006
1.985000e+000,3.091204e-006
1.986000e+000,3.176648e-006
1.987000e+000,3.325278e-006
1.988000e+000,3.559859e-006
1.989000e+000,3.899326e-006
1.990000e+000,4.341729e-006
1.991000e+000,4.836406e-006
1.992000e+000,5.321382e-006
1.993000e+000,5.805978e-006
1.994000e+000,6.359378e-006
1.995000e+000,7.001880e-006
1.996000e+000,7.688234e-006
1.997000e+000,8.404269e-006
1.998000e+000,9.160459e-006
1.999000e+000,9.952703e-006
2.000000e+000,1.075919e-005
2.001000e+000,1.159077e-005
2.002000e+000,1.246715e-005
2.003000e+000,1.337039e-005
2.004000e+000,1.428741e-005
2.005000e+000,1.523762e-005
2.006000e+000,1.622062e-005
2.007000e+000,1.720522e-005
2.008000e+000,1.815505e-005
2.009000e+000,1.906552e-005
2.010000e+000,1.994846e-005
2.011000e+000,2.081852e-005
2.012000e+000,2.167658e-005
2.013000e+000,2.251538e-005
2.014000e+000,2.333157e-005
2.015000e+000,2.414181e-005
2.016000e+000,2.494876e-005
2.017000e+000,2.574799e-005
2.018000e+000,2.654507e-005
2.019000e+000,2.734243e-005
2.020000e+000,2.812961e-005
2.021000e+000,2.889340e-005
2.022000e+000,2.962711e-005
2.023000e+000,3.032995e-005
2.024000e+000,3.101466e-005
2.025000e+000,3.169438e-005
2.026000e+000,3.235997e-005
2.027000e+000,3.299814e-005
2.028000e+000,3.360789e-005
2.029000e+000,3.419593e-005
2.030000e+000,3.474895e-005
2.031000e+000,3.525559e-005
2.032000e+000,3.573067e-005
2.033000e+000,3.617511e-005
2.034000e+000,3.658169e-005
2.035000e+000,3.694252e-005
2.036000e+000,3.725070e-005
2.037000e+000,3.750982e-005
2.038000e+000,3.772932e-005
2.039000e+000,3.791216e-005
2.040000e+000,3.805476e-005
2.041000e+000,3.816552e-005
2.042000e+000,3.826376e-005
2.043000e+000,3.835207e-005
2.044000e+000,3.841996e-005
2.045000e+000,3.846819e-005
2.046000e+000,3.848630e-005
2.047000e+000,3.847467e-005
2.048000e+000,3.844658e-005
2.049000e+000,3.840403e-005
2.050000e+000,3.833763e-005
2.051000e+000,3.826872e-005
2.052000e+000,3.823593e-005
2.053000e+000,3.821344e-005
2.054000e+000,3.816381e-005
2.055000e+000,3.808973e-005
2.056000e+000,3.801503e-005
2.057000e+000,3.794773e-005
2.058000e+000,3.786195e-005
2.059000e+000,3.774067e-005
2.060000e+000,3.759067e-005
2.061000e+000,3.741213e-005
2.062000e+000,3.722752e-005
2.063000e+000,3.705573e-005
2.064000e+000,3.688977e-005
2.065000e+000,3.670943e-005
2.066000e+000,3.649181e-005
2.067000e+000,3.623717e-005
2.068000e+000,3.595115e-005
2.069000e+000,3.563163e-005
2.070000e+000,3.528030e-005
2.071000e+000,3.490293e-005
2.072000e+000,3.450360e-005
2.073000e+000,3.407841e-005
2.074000e+000,3.363058e-005
2.075000e+000,3.315486e-005
2.076000e+000,3.265245e-005
2.077000e+000,3.212917e-005
2.078000e+000,3.158971e-005
2.079000e+000,3.103860e-005
2.080000e+000,3.048149e-005
2.081000e+000,2.991493e-005
2.082000e+000,2.933603e-005
2.083000e+000,2.873886e-005
2.084000e+000,2.812286e-005
2.085000e+000,2.749292e-005
2.086000e+000,2.684875e-005
2.087000e+000,2.619571e-005
2.088000e+000,2.553317e-005
2.089000e+000,2.486329e-005
2.090000e+000,2.420492e-005
2.091000e+000,2.356601e-005
2.092000e+000,2.292788e-005
2.093000e+000,2.228265e-005
2.094000e+000,2.163781e-005
2.095000e+000,2.099343e-005
2.096000e+000,2.033707e-005
2.097000e+000,1.967160e-005
2.098000e+000,1.900587e-005
2.099000e+000,1.834588e-005
2.100000e+000,1.767895e-005
2.101000e+000,1.700224e-005
2.102000e+000,1.631993e-005
2.103000e+000,1.563902e-005
2.104000e+000,1.495578e-005
2.105000e+000,1.426538e-005
2.106000e+000,1.356789e-005
2.107000e+000,1.286649e-005
2.108000e+000,1.216832e-005
2.109000e+000,1.147845e-005
2.110000e+000,1.078860e-005
2.111000e+000,1.011768e-005
2.112000e+000,9.476319e-006
2.113000e+000,8.851083e-006
2.114000e+000,8.230496e-006
2.115000e+000,7.606705e-006
2.116000e+000,6.986200e-006
2.117000e+000,6.371896e-006
2.118000e+000,5.774339e-006
2.119000e+000,5.205636e-006
2.120000e+000,4.649382e-006
2.121000e+000,4.095853e-006
2.122000e+000,3.546181e-006
2.123000e+000,2.996551e-006
2.124000e+000,2.448402e-006
2.125000e+000,1.906486e-006
2.126000e+000,1.379001e-006
2.127000e+000,8.642439e-007
2.128000e+000,3.543216e-007
2.129000e+000,-1.444159e-007
2.130000e+000,-6.272008e-007
2.131000e+000,-1.101714e-006
2.132000e+000,-1.556931e-006
2.133000e+000,-1.980992e-006
2.134000e+000,-2.381152e-006
2.135000e+000,-2.772325e-006
2.136000e+000,-3.163021e-006
2.137000e+000,-3.546205e-006
2.138000e+000,-3.904445e-006
2.139000e+000,-4.236621e-006
2.140000e+000,-4.564409e-006
2.141000e+000,-4.896829e-006
2.142000e+000,-5.231044e-006
2.143000e+000,-5.560291e-006
2.144000e+000,-5.886188e-006
2.145000e+000,-6.215325e-006
2.146000e+000,-6.544530e-006
2.147000e+000,-6.870988e-006
2.148000e+000,-7.193744e-006
2.149000e+000,-7.511767e-006
2.150000e+000,-7.822724e-006
2.151000e+000,-8.130286e-006
2.152000e+000,-8.439665e-006
2.153000e+000,-8.749568e-006
2.154000e+000,-9.060533e-006
2.155000e+000,-9.367069e-006
2.156000e+000,-9.655498e-006
2.157000e+000,-9.918959e-006
2.158000e+000,-1.016157e-005
2.159000e+000,-1.039398e-005
2.160000e+000,-1.060905e-005
2.161000e+000,-1.078869e-005
2.162000e+000,-1.091911e-005
2.163000e+000,-1.100623e-005
2.164000e+000,-1.107610e-005
2.165000e+000,-1.114095e-005
2.166000e+000,-1.118754e-005
2.167000e+000,-1.117961e-005
2.168000e+000,-1.110590e-005
2.169000e+000,-1.097812e-005
2.170000e+000,-1.081783e-005
2.171000e+000,-1.064812e-005
2.172000e+000,-1.047961e-005
2.173000e+000,-1.031504e-005
2.174000e+000,-1.016177e-005
2.175000e+000,-1.002419e-005
2.176000e+000,-9.896733e-006
2.177000e+000,-9.772293e-006
2.178000e+000,-9.648567e-006
2.179000e+000,-9.519077e-006
2.180000e+000,-9.393713e-006
2.181000e+000,-9.277816e-006
2.182000e+000,-9.159169e-006
2.183000e+000,-9.040237e-006
2.184000e+000,-8.927120e-006
2.185000e+000,-8.816719e-006
2.186000e+000,-8.699719e-006
2.187000e+000,-8.561589e-006
2.188000e+000,-8.389219e-006
2.189000e+000,-8.196071e-006
2.190000e+000,-8.000832e-006
2.191000e+000,-7.816168e-006
2.192000e+000,-7.640001e-006
2.193000e+000,-7.458771e-006
2.194000e+000,-7.258068e-006
2.195000e+000,-7.040696e-006
2.196000e+000,-6.823239e-006
2.197000e+000,-6.603576e-006
2.198000e+000,-6.388204e-006
2.199000e+000,-6.189121e-006
2.200000e+000,-6.004566e-006
2.201000e+000,-5.833040e-006
2.202000e+000,-5.681167e-006
2.203000e+000,-5.547647e-006
2.204000e+000,-5.421781e-006
2.205000e+000,-5.303557e-006
2.206000e+000,-5.202834e-006
2.207000e+000,-5.117760e-006
2.208000e+000,-5.046771e-006
2.209000e+000,-4.993250e-006
2.210000e+000,-4.956806e-006
2.211000e+000,-4.933412e-006
2.212000e+000,-4.915007e-006
2.213000e+000,-4.908572e-006
2.214000e+000,-4.917414e-006
2.215000e+000,-4.941595e-006
2.216000e+000,-4.978974e-006
2.217000e+000,-5.026215e-006
2.218000e+000,-5.076605e-006
2.219000e+000,-5.126610e-006
2.220000e+000,-5.170093e-006
2.221000e+000,-5.207721e-006
2.222000e+000,-5.240918e-006
2.223000e+000,-5.268693e-006
2.224000e+000,-5.285936e-006
2.225000e+000,-5.292899e-006
2.226000e+000,-5.298082e-006
2.227000e+000,-5.291581e-006
2.228000e+000,-5.273241e-006
2.229000e+000,-5.255029e-006
2.230000e+000,-5.248401e-006
2.231000e+000,-5.254617e-006
2.232000e+000,-5.278570e-006
2.233000e+000,-5.315726e-006
2.234000e+000,-5.358043e-006
2.235000e+000,-5.392383e-006
2.236000e+000,-5.424716e-006
2.237000e+000,-5.458626e-006
2.238000e+000,-5.489582e-006
2.239000e+000,-5.530385e-006
2.240000e+000,-5.582645e-006
2.241000e+000,-5.646323e-006
2.242000e+000,-5.721217e-006
2.243000e+000,-5.796309e-006
2.244000e+000,-5.861730e-006
2.245000e+000,-5.928752e-006
2.246000e+000,-5.991649e-006
2.247000e+000,-6.038373e-006
2.248000e+000,-6.080823e-006
2.249000e+000,-6.133720e-006
2.250000e+000,-6.196080e-006
2.251000e+000,-6.265932e-006
2.252000e+000,-6.340554e-006
2.253000e+000,-6.425047e-006
2.254000e+000,-6.520260e-006
2.255000e+000,-6.621678e-006
2.256000e+000,-6.730991e-006
2.257000e+000,-6.851786e-006
2.258000e+000,-6.983542e-006
2.259000e+000,-7.124203e-006
2.260000e+000,-7.270495e-006
2.261000e+000,-7.422670e-006
2.262000e+000,-7.583324e-006
2.263000e+000,-7.744565e-006
2.264000e+000,-7.902797e-006
2.265000e+000,-8.063119e-006
2.266000e+000,-8.224285e-006
2.267000e+000,-8.381257e-006
2.268000e+000,-8.537526e-006
2.269000e+000,-8.689004e-006
2.270000e+000,-8.835804e-006
2.271000e+000,-8.979514e-006
2.272000e+000,-9.121561e-006
2.273000e+000,-9.269170e-006
2.274000e+000,-9.425953e-006
2.275000e+000,-9.591106e-006
2.276000e+000,-9.762964e-006
2.277000e+000,-9.939853e-006
2.278000e+000,-1.012118e-005
2.279000e+000,-1.030416e-005
2.280000e+000,-1.048400e-005
2.281000e+000,-1.065483e-005
2.282000e+000,-1.081964e-005
2.283000e+000,-1.098590e-005
2.284000e+000,-1.114925e-005
2.285000e+000,-1.130188e-005
2.286000e+000,-1.144816e-005
2.287000e+000,-1.158638e-005
2.288000e+000,-1.171604e-005
2.289000e+000,-1.184139e-005
2.290000e+000,-1.196774e-005
2.291000e+000,-1.209997e-005
2.292000e+000,-1.223730e-005
2.293000e+000,-1.237777e-005
2.294000e+000,-1.251663e-005
2.295000e+000,-1.265090e-005
2.296000e+000,-1.278672e-005
2.297000e+000,-1.292696e-005
2.298000e+000,-1.307182e-005
2.299000e+000,-1.321957e-005
2.300000e+000,-1.336843e-005
2.301000e+000,-1.351887e-005
2.302000e+000,-1.367158e-005
2.303000e+000,-1.382396e-005
2.304000e+000,-1.397005e-005
2.305000e+000,-1.411097e-005
2.306000e+000,-1.425357e-005
2.307000e+000,-1.439877e-005
2.308000e+000,-1.454630e-005
2.309000e+000,-1.469539e-005
2.310000e+000,-1.484469e-005
2.311000e+000,-1.499388e-005
2.312000e+000,-1.514313e-005
2.313000e+000,-1.529357e-005
2.314000e+000,-1.544420e-005
2.315000e+000,-1.558955e-005
2.316000e+000,-1.572734e-005
2.317000e+000,-1.586297e-005
2.318000e+000,-1.599667e-005
2.319000e+000,-1.612804e-005
2.320000e+000,-1.625540e-005
2.321000e+000,-1.637995e-005
2.322000e+000,-1.650320e-005
2.323000e+000,-1.662559e-005
2.324000e+000,-1.674366e-005
2.325000e+000,-1.685553e-005
2.326000e+000,-1.696541e-005
2.327000e+000,-1.707208e-005
2.328000e+000,-1.717315e-005
2.329000e+000,-1.727119e-005
2.330000e+000,-1.736634e-005
2.331000e+000,-1.745868e-005
2.332000e+000,-1.754889e-005
2.333000e+000,-1.763794e-005
2.334000e+000,-1.772552e-005
2.335000e+000,-1.781111e-005
2.336000e+000,-1.789240e-005
2.337000e+000,-1.796857e-005
2.338000e+000,-1.803949e-005
2.339000e+000,-1.810728e-005
2.340000e+000,-1.817067e-005
2.341000e+000,-1.822940e-005
2.342000e+000,-1.828544e-005
2.343000e+000,-1.833673e-005
2.344000e+000,-1.838385e-005
2.345000e+000,-1.842711e-005
2.346000e+000,-1.846690e-005
2.347000e+000,-1.850276e-005
2.348000e+000,-1.853584e-005
2.349000e+000,-1.856612e-005
2.350000e+000,-1.859465e-005
2.351000e+000,-1.862053e-005
2.352000e+000,-1.864082e-005
2.353000e+000,-1.865462e-005
2.354000e+000,-1.866189e-005
2.355000e+000,-1.866382e-005
2.356000e+000,-1.866314e-005
2.357000e+000,-1.866045e-005
2.358000e+000,-1.865423e-005
2.359000e+000,-1.864545e-005
2.360000e+000,-1.863465e-005
2.361000e+000,-1.862168e-005
2.362000e+000,-1.860647e-005
2.363000e+000,-1.858902e-005
2.364000e+000,-1.856784e-005
2.365000e+000,-1.853998e-005
2.366000e+000,-1.850785e-005
2.367000e+000,-1.847487e-005
2.368000e+000,-1.844058e-005
2.369000e+000,-1.840255e-005
2.370000e+000,-1.835806e-005
2.371000e+000,-1.830666e-005
2.372000e+000,-1.824973e-005
2.373000e+000,-1.818725e-005
2.374000e+000,-1.811814e-005
2.375000e+000,-1.804465e-005
2.376000e+000,-1.797017e-005
2.377000e+000,-1.789436e-005
2.378000e+000,-1.781797e-005
2.379000e+000,-1.774178e-005
2.380000e+000,-1.766397e-005
2.381000e+000,-1.758280e-005
2.382000e+000,-1.749837e-005
2.383000e+000,-1.741128e-005
2.384000e+000,-1.732276e-005
2.385000e+000,-1.723271e-005
2.386000e+000,-1.713698e-005
2.387000e+000,-1.703010e-005
2.388000e+000,-1.691359e-005
2.389000e+000,-1.679178e-005
2.390000e+000,-1.666797e-005
2.391000e+000,-1.654356e-005
2.392000e+000,-1.641807e-005
2.393000e+000,-1.628934e-005
2.394000e+000,-1.615491e-005
2.395000e+000,-1.601619e-005
2.396000e+000,-1.587679e-005
2.397000e+000,-1.573867e-005
2.398000e+000,-1.560260e-005
2.399000e+000,-1.546795e-005
2.400000e+000,-1.533311e-005
2.401000e+000,-1.519591e-005
2.402000e+000,-1.505542e-005
2.403000e+000,-1.490998e-005
2.404000e+000,-1.475574e-005
2.405000e+000,-1.459505e-005
2.406000e+000,-1.443294e-005
2.407000e+000,-1.426913e-005
2.408000e+000,-1.410663e-005
2.409000e+000,-1.394705e-005
2.410000e+000,-1.378888e-005
2.411000e+000,-1.363131e-005
2.412000e+000,-1.347433e-005
2.413000e+000,-1.331836e-005
2.414000e+000,-1.316353e-005
2.415000e+000,-1.300980e-005
2.416000e+000,-1.285880e-005
2.417000e+000,-1.270761e-005
2.418000e+000,-1.255634e-005
2.419000e+000,-1.240473e-005
2.420000e+000,-1.224787e-005
2.421000e+000,-1.208474e-005
2.422000e+000,-1.191557e-005
2.423000e+000,-1.174170e-005
2.424000e+000,-1.156553e-005
2.425000e+000,-1.138881e-005
2.426000e+000,-1.121351e-005
2.427000e+000,-1.104196e-005
2.428000e+000,-1.087533e-005
2.429000e+000,-1.071321e-005
2.430000e+000,-1.055441e-005
2.431000e+000,-1.039623e-005
2.432000e+000,-1.024025e-005
2.433000e+000,-1.008718e-005
2.434000e+000,-9.935276e-006
2.435000e+000,-9.782051e-006
2.436000e+000,-9.630306e-006
2.437000e+000,-9.480014e-006
2.438000e+000,-9.332570e-006
2.439000e+000,-9.189252e-006
2.440000e+000,-9.049333e-006
2.441000e+000,-8.912940e-006
2.442000e+000,-8.779856e-006
2.443000e+000,-8.649763e-006
2.444000e+000,-8.520754e-006
2.445000e+000,-8.391127e-006
2.446000e+000,-8.260119e-006
2.447000e+000,-8.128840e-006
2.448000e+000,-7.997010e-006
2.449000e+000,-7.866737e-006
2.450000e+000,-7.740912e-006
2.451000e+000,-7.619825e-006
2.452000e+000,-7.502960e-006
2.453000e+000,-7.390424e-006
2.454000e+000,-7.281900e-006
2.455000e+000,-7.174050e-006
2.456000e+000,-7.067053e-006
2.457000e+000,-6.963733e-006
2.458000e+000,-6.862983e-006
2.459000e+000,-6.763128e-006
2.460000e+000,-6.663874e-006
2.461000e+000,-6.562477e-006
2.462000e+000,-6.457541e-006
2.463000e+000,-6.350886e-006
2.464000e+000,-6.242433e-006
2.465000e+000,-6.133813e-006
2.466000e+000,-6.029957e-006
2.467000e+000,-5.930395e-006
2.468000e+000,-5.835156e-006
2.469000e+000,-5.744200e-006
2.470000e+000,-5.654869e-006
2.471000e+000,-5.565300e-006
2.472000e+000,-5.476684e-006
2.473000e+000,-5.388588e-006
2.474000e+000,-5.303223e-006
2.475000e+000,-5.221200e-006
2.476000e+000,-5.140923e-006
2.477000e+000,-5.063295e-006
2.478000e+000,-4.988133e-006
2.479000e+000,-4.914509e-006
2.480000e+000,-4.844117e-006
2.481000e+000,-4.777049e-006
2.482000e+000,-4.713438e-006
2.483000e+000,-4.653451e-006
2.484000e+000,-4.596942e-006
2.485000e+000,-4.543503e-006
2.486000e+000,-4.492638e-006
2.487000e+000,-4.443431e-006
2.488000e+000,-4.396101e-006
2.489000e+000,-4.350898e-006
2.490000e+000,-4.306544e-006
2.491000e+000,-4.261320e-006
2.492000e+000,-4.218096e-006
2.493000e+000,-4.177145e-006
2.494000e+000,-4.137859e-006
2.495000e+000,-4.098379e-006
2.496000e+000,-4.053709e-006
2.497000e+000,-4.002609e-006
2.498000e+000,-3.945870e-006
2.499000e+000,-3.884852e-006
2.500000e+000,-3.816497e-006
2.501000e+000,-3.746300e-006
2.502000e+000,-3.677764e-006
2.503000e+000,-3.609076e-006
2.504000e+000,-3.542589e-006
2.505000e+000,-3.477012e-006
2.506000e+000,-3.406732e-006
2.507000e+000,-3.331141e-006
2.508000e+000,-3.252485e-006
2.509000e+000,-3.171128e-006
2.510000e+000,-3.087340e-006
2.511000e+000,-3.006358e-006
2.512000e+000,-2.928254e-006
2.513000e+000,-2.851638e-006
2.514000e+000,-2.775748e-006
2.515000e+000,-2.702051e-006
2.516000e+000,-2.630783e-006
2.517000e+000,-2.561846e-006
2.518000e+000,-2.495505e-006
2.519000e+000,-2.428720e-006
2.520000e+000,-2.360505e-006
2.521000e+000,-2.289312e-006
2.522000e+000,-2.215699e-006
2.523000e+000,-2.141469e-006
2.524000e+000,-2.067156e-006
2.525000e+000,-1.991353e-006
2.526000e+000,-1.916817e-006
2.527000e+000,-1.844226e-006
2.528000e+000,-1.773777e-006
2.529000e+000,-1.706538e-006
2.530000e+000,-1.642071e-006
2.531000e+000,-1.581003e-006
2.532000e+000,-1.523909e-006
2.533000e+000,-1.469490e-006
2.534000e+000,-1.415498e-006
2.535000e+000,-1.359581e-006
2.536000e+000,-1.302693e-006
2.537000e+000,-1.247128e-006
2.538000e+000,-1.192061e-006
2.539000e+000,-1.137548e-006
2.540000e+000,-1.084462e-006
2.541000e+000,-1.033384e-006
2.542000e+000,-9.851035e-007
2.543000e+000,-9.402543e-007
2.544000e+000,-8.983594e-007
2.545000e+000,-8.574687e-007
2.546000e+000,-8.171229e-007
2.547000e+000,-7.775534e-007
2.548000e+000,-7.396036e-007
2.549000e+000,-7.044228e-007
2.550000e+000,-6.712153e-007
2.551000e+000,-6.365849e-007
2.552000e+000,-5.969509e-007
2.553000e+000,-5.552063e-007
2.554000e+000,-5.153525e-007
2.555000e+000,-4.753506e-007
2.556000e+000,-4.338220e-007
2.557000e+000,-3.904333e-007
2.558000e+000,-3.459057e-007
2.559000e+000,-3.013624e-007
2.560000e+000,-2.579931e-007
2.561000e+000,-2.174628e-007
2.562000e+000,-1.791760e-007
2.563000e+000,-1.409302e-007
2.564000e+000,-1.037385e-007
2.565000e+000,-6.943886e-008
2.566000e+000,-3.608766e-008
2.567000e+000,-8.438251e-010
2.568000e+000,3.604679e-008
2.569000e+000,7.307969e-008
2.570000e+000,1.110632e-007
2.571000e+000,1.498852e-007
2.572000e+000,1.883941e-007
2.573000e+000,2.247050e-007
2.574000e+000,2.587096e-007
2.575000e+000,2.903866e-007
2.576000e+000,3.200345e-007
2.577000e+000,3.495055e-007
2.578000e+000,3.781582e-007
2.579000e+000,4.061826e-007
2.580000e+000,4.352383e-007
2.581000e+000,4.667275e-007
2.582000e+000,4.986870e-007
2.583000e+000,5.296919e-007
2.584000e+000,5.604951e-007
2.585000e+000,5.899135e-007
2.586000e+000,6.175475e-007
2.587000e+000,6.444110e-007
2.588000e+000,6.702097e-007
2.589000e+000,6.950334e-007
2.590000e+000,7.188997e-007
2.591000e+000,7.411195e-007
2.592000e+000,7.625083e-007
2.593000e+000,7.834026e-007
2.594000e+000,8.042458e-007
2.595000e+000,8.263067e-007
2.596000e+000,8.490307e-007
2.597000e+000,8.749790e-007
2.598000e+000,9.060414e-007
2.599000e+000,9.381686e-007
2.600000e+000,9.696758e-007
2.601000e+000,1.002089e-006
2.602000e+000,1.034475e-006
2.603000e+000,1.065635e-006
2.604000e+000,1.099024e-006
2.605000e+000,1.136596e-006
2.606000e+000,1.176824e-006
2.607000e+000,1.228869e-006
2.608000e+000,1.295604e-006
2.609000e+000,1.371849e-006
2.610000e+000,1.460225e-006
2.611000e+000,1.556547e-006
2.612000e+000,1.655002e-006
2.613000e+000,1.758111e-006
2.614000e+000,1.859217e-006
2.615000e+000,1.959664e-006
2.616000e+000,2.069150e-006
2.617000e+000,2.188844e-006
2.618000e+000,2.309384e-006
2.619000e+000,2.425327e-006
2.620000e+000,2.536139e-006
2.621000e+000,2.642678e-006
2.622000e+000,2.746391e-006
2.623000e+000,2.845491e-006
2.624000e+000,2.939282e-006
2.625000e+000,3.028098e-006
2.626000e+000,3.113438e-006
2.627000e+000,3.200320e-006
2.628000e+000,3.287590e-006
2.629000e+000,3.371240e-006
2.630000e+000,3.451446e-006
2.631000e+000,3.529167e-006
2.632000e+000,3.602825e-006
2.633000e+000,3.671135e-006
2.634000e+000,3.734395e-006
2.635000e+000,3.792678e-006
2.636000e+000,3.848435e-006
2.637000e+000,3.903917e-006
2.638000e+000,3.962648e-006
2.639000e+000,4.029846e-006
2.640000e+000,4.101446e-006
2.641000e+000,4.171596e-006
2.642000e+000,4.238295e-006
2.643000e+000,4.302138e-006
2.644000e+000,4.365875e-006
2.645000e+000,4.431841e-006
2.646000e+000,4.497362e-006
2.647000e+000,4.558584e-006
2.648000e+000,4.616909e-006
2.649000e+000,4.674818e-006
2.650000e+000,4.740016e-006
2.651000e+000,4.814757e-006
2.652000e+000,4.888992e-006
2.653000e+000,4.958430e-006
2.654000e+000,5.027763e-006
2.655000e+000,5.103604e-006
2.656000e+000,5.194756e-006
2.657000e+000,5.301211e-006
2.658000e+000,5.410945e-006
2.659000e+000,5.518074e-006
2.660000e+000,5.623114e-006
2.661000e+000,5.727137e-006
2.662000e+000,5.835731e-006
2.663000e+000,5.957060e-006
2.664000e+000,6.090470e-006
2.665000e+000,6.245613e-006
2.666000e+000,6.432297e-006
2.667000e+000,6.697160e-006
2.668000e+000,7.045905e-006
2.669000e+000,7.437676e-006
2.670000e+000,7.862985e-006
2.671000e+000,8.295570e-006
2.672000e+000,8.733811e-006
2.673000e+000,9.217529e-006
2.674000e+000,9.760934e-006
2.675000e+000,1.033706e-005
2.676000e+000,1.095350e-005
2.677000e+000,1.162379e-005
2.678000e+000,1.231356e-005
2.679000e+000,1.302345e-005
2.680000e+000,1.377008e-005
2.681000e+000,1.455268e-005
2.682000e+000,1.533727e-005
2.683000e+000,1.610683e-005
2.684000e+000,1.684927e-005
2.685000e+000,1.755118e-005
2.686000e+000,1.821643e-005
2.687000e+000,1.884738e-005
2.688000e+000,1.944490e-005
2.689000e+000,2.000777e-005
2.690000e+000,2.054412e-005
2.691000e+000,2.106486e-005
2.692000e+000,2.156825e-005
2.693000e+000,2.205325e-005
2.694000e+000,2.252266e-005
2.695000e+000,2.297885e-005
2.696000e+000,2.341970e-005
2.697000e+000,2.384607e-005
2.698000e+000,2.425885e-005
2.699000e+000,2.465772e-005
2.700000e+000,2.503927e-005
2.701000e+000,2.539349e-005
2.702000e+000,2.571901e-005
2.703000e+000,2.602559e-005
2.704000e+000,2.632071e-005
2.705000e+000,2.660776e-005
2.706000e+000,2.688822e-005
2.707000e+000,2.715795e-005
2.708000e+000,2.741655e-005
2.709000e+000,2.766119e-005
2.710000e+000,2.787670e-005
2.711000e+000,2.806164e-005
2.712000e+000,2.822392e-005
2.713000e+000,2.836435e-005
2.714000e+000,2.848275e-005
2.715000e+000,2.857110e-005
2.716000e+000,2.862481e-005
2.717000e+000,2.864673e-005
2.718000e+000,2.864441e-005
2.719000e+000,2.862269e-005
2.720000e+000,2.857403e-005
2.721000e+000,2.850086e-005
2.722000e+000,2.841606e-005
2.723000e+000,2.831878e-005
2.724000e+000,2.821430e-005
2.725000e+000,2.810908e-005
2.726000e+000,2.799132e-005
2.727000e+000,2.785687e-005
2.728000e+000,2.771655e-005
2.729000e+000,2.757660e-005
2.730000e+000,2.741889e-005
2.731000e+000,2.724107e-005
2.732000e+000,2.705334e-005
2.733000e+000,2.686314e-005
2.734000e+000,2.668752e-005
2.735000e+000,2.653115e-005
2.736000e+000,2.636863e-005
2.737000e+000,2.619572e-005
2.738000e+000,2.600596e-005
2.739000e+000,2.579831e-005
2.740000e+000,2.558030e-005
2.741000e+000,2.535625e-005
2.742000e+000,2.514212e-005
2.743000e+000,2.492586e-005
2.744000e+000,2.468944e-005
2.745000e+000,2.443197e-005
2.746000e+000,2.415734e-005
2.747000e+000,2.387540e-005
2.748000e+000,2.358799e-005
2.749000e+000,2.328951e-005
2.750000e+000,2.297532e-005
2.751000e+000,2.264369e-005
2.752000e+000,2.230003e-005
2.753000e+000,2.194531e-005
2.754000e+000,2.158633e-005
2.755000e+000,2.122614e-005
2.756000e+000,2.086435e-005
2.757000e+000,2.052035e-005
2.758000e+000,2.019860e-005
2.759000e+000,1.987893e-005
2.760000e+000,1.954820e-005
2.761000e+000,1.921266e-005
2.762000e+000,1.887832e-005
2.763000e+000,1.853814e-005
2.764000e+000,1.818725e-005
2.765000e+000,1.783214e-005
2.766000e+000,1.747196e-005
2.767000e+000,1.710292e-005
2.768000e+000,1.673489e-005
2.769000e+000,1.636700e-005
2.770000e+000,1.599140e-005
2.771000e+000,1.561014e-005
2.772000e+000,1.522447e-005
2.773000e+000,1.483103e-005
2.774000e+000,1.442765e-005
2.775000e+000,1.401465e-005
2.776000e+000,1.359466e-005
2.777000e+000,1.316859e-005
2.778000e+000,1.273891e-005
2.779000e+000,1.231811e-005
2.780000e+000,1.191006e-005
2.781000e+000,1.151564e-005
2.782000e+000,1.113202e-005
2.783000e+000,1.074792e-005
2.784000e+000,1.036039e-005
2.785000e+000,9.968277e-006
2.786000e+000,9.577208e-006
2.787000e+000,9.187133e-006
2.788000e+000,8.801110e-006
2.789000e+000,8.432008e-006
2.790000e+000,8.082521e-006
2.791000e+000,7.748863e-006
2.792000e+000,7.431522e-006
2.793000e+000,7.125967e-006
2.794000e+000,6.828760e-006
2.795000e+000,6.539247e-006
2.796000e+000,6.253193e-006
2.797000e+000,5.979559e-006
2.798000e+000,5.711287e-006
2.799000e+000,5.437991e-006
2.800000e+000,5.160361e-006
2.801000e+000,4.886347e-006
2.802000e+000,4.628281e-006
2.803000e+000,4.397593e-006
2.804000e+000,4.194172e-006
2.805000e+000,4.013259e-006
2.806000e+000,3.848957e-006
2.807000e+000,3.686000e-006
2.808000e+000,3.527514e-006
2.809000e+000,3.381527e-006
2.810000e+000,3.241351e-006
2.811000e+000,3.123472e-006
2.812000e+000,3.014494e-006
2.813000e+000,2.897744e-006
2.814000e+000,2.774184e-006
2.815000e+000,2.647079e-006
2.816000e+000,2.518519e-006
2.817000e+000,2.382087e-006
2.818000e+000,2.243806e-006
2.819000e+000,2.107576e-006
2.820000e+000,1.965054e-006
2.821000e+000,1.813547e-006
2.822000e+000,1.655628e-006
2.823000e+000,1.502454e-006
2.824000e+000,1.387056e-006
2.825000e+000,1.334876e-006
2.826000e+000,1.337688e-006
2.827000e+000,1.351911e-006
2.828000e+000,1.369331e-006
2.829000e+000,1.397081e-006
2.830000e+000,1.420118e-006
2.831000e+000,1.440144e-006
2.832000e+000,1.478115e-006
2.833000e+000,1.534602e-006
2.834000e+000,1.589020e-006
2.835000e+000,1.648303e-006
2.836000e+000,1.722007e-006
2.837000e+000,1.805795e-006
2.838000e+000,1.885249e-006
2.839000e+000,1.949247e-006
2.840000e+000,2.004284e-006
2.841000e+000,2.067922e-006
2.842000e+000,2.142687e-006
2.843000e+000,2.229068e-006
2.844000e+000,2.337700e-006
2.845000e+000,2.449248e-006
2.846000e+000,2.551424e-006
2.847000e+000,2.666176e-006
2.848000e+000,2.806007e-006
2.849000e+000,2.944980e-006
2.850000e+000,3.075911e-006
2.851000e+000,3.207776e-006
2.852000e+000,3.325912e-006
2.853000e+000,3.429395e-006
2.854000e+000,3.525159e-006
2.855000e+000,3.608863e-006
2.856000e+000,3.689759e-006
2.857000e+000,3.771316e-006
2.858000e+000,3.843610e-006
2.859000e+000,3.904926e-006
2.860000e+000,3.952580e-006
2.861000e+000,3.984312e-006
2.862000e+000,4.000722e-006
2.863000e+000,4.001130e-006
2.864000e+000,3.985245e-006
2.865000e+000,3.958602e-006
2.866000e+000,3.923933e-006
2.867000e+000,3.883162e-006
2.868000e+000,3.837805e-006
2.869000e+000,3.792391e-006
2.870000e+000,3.748480e-006
2.871000e+000,3.693564e-006
2.872000e+000,3.621673e-006
2.873000e+000,3.539363e-006
2.874000e+000,3.460458e-006
2.875000e+000,3.399481e-006
2.876000e+000,3.357000e-006
2.877000e+000,3.314008e-006
2.878000e+000,3.260964e-006
2.879000e+000,3.214890e-006
2.880000e+000,3.178012e-006
2.881000e+000,3.145207e-006
2.882000e+000,3.121621e-006
2.883000e+000,3.109931e-006
2.884000e+000,3.085057e-006
2.885000e+000,3.047507e-006
2.886000e+000,3.017353e-006
2.887000e+000,3.008021e-006
2.888000e+000,3.019334e-006
2.889000e+000,3.031509e-006
2.890000e+000,3.044354e-006
2.891000e+000,3.069589e-006
2.892000e+000,3.082287e-006
2.893000e+000,3.076359e-006
2.894000e+000,3.062106e-006
2.895000e+000,3.042979e-006
2.896000e+000,3.008670e-006
2.897000e+000,2.961849e-006
2.898000e+000,2.915867e-006
2.899000e+000,2.865417e-006
2.900000e+000,2.815999e-006
2.901000e+000,2.790267e-006
2.902000e+000,2.781496e-006
2.903000e+000,2.778351e-006
2.904000e+000,2.778983e-006
2.905000e+000,2.776878e-006
2.906000e+000,2.762092e-006
2.907000e+000,2.734874e-006
2.908000e+000,2.699140e-006
2.909000e+000,2.659443e-006
2.910000e+000,2.613826e-006
2.911000e+000,2.559707e-006
2.912000e+000,2.491203e-006
2.913000e+000,2.407826e-006
2.914000e+000,2.314704e-006
2.915000e+000,2.220191e-006
2.916000e+000,2.124956e-006
2.917000e+000,2.018625e-006
2.918000e+000,1.896616e-006
2.919000e+000,1.765009e-006
2.920000e+000,1.635927e-006
2.921000e+000,1.510225e-006
2.922000e+000,1.388590e-006
2.923000e+000,1.277827e-006
2.924000e+000,1.165600e-006
2.925000e+000,1.041480e-006
2.926000e+000,9.087603e-007
2.927000e+000,7.735502e-007
2.928000e+000,6.461605e-007
2.929000e+000,5.140279e-007
2.930000e+000,3.751338e-007
2.931000e+000,2.301931e-007
2.932000e+000,7.156008e-008
2.933000e+000,-1.004707e-007
2.934000e+000,-2.852874e-007
2.935000e+000,-4.808640e-007
2.936000e+000,-6.849962e-007
2.937000e+000,-8.895675e-007
2.938000e+000,-1.089287e-006
2.939000e+000,-1.281961e-006
2.940000e+000,-1.469276e-006
2.941000e+000,-1.658765e-006
2.942000e+000,-1.845375e-006
2.943000e+000,-2.027522e-006
2.944000e+000,-2.206237e-006
2.945000e+000,-2.387886e-006
2.946000e+000,-2.572619e-006
2.947000e+000,-2.754983e-006
2.948000e+000,-2.939470e-006
2.949000e+000,-3.130706e-006
2.950000e+000,-3.329345e-006
2.951000e+000,-3.529873e-006
2.952000e+000,-3.726729e-006
2.953000e+000,-3.926120e-006
2.954000e+000,-4.128001e-006
2.955000e+000,-4.325647e-006
2.956000e+000,-4.518767e-006
2.957000e+000,-4.713575e-006
2.958000e+000,-4.912739e-006
2.959000e+000,-5.116801e-006
2.960000e+000,-5.325001e-006
2.961000e+000,-5.537321e-006
2.962000e+000,-5.751068e-006
2.963000e+000,-5.956942e-006
2.964000e+000,-6.160043e-006
2.965000e+000,-6.368599e-006
2.966000e+000,-6.582751e-006
2.967000e+000,-6.801275e-006
2.968000e+000,-7.023371e-006
2.969000e+000,-7.248918e-006
2.970000e+000,-7.478105e-006
2.971000e+000,-7.706081e-006
2.972000e+000,-7.924157e-006
2.973000e+000,-8.128394e-006
2.974000e+000,-8.319951e-006
2.975000e+000,-8.503512e-006
2.976000e+000,-8.684279e-006
2.977000e+000,-8.868856e-006
2.978000e+000,-9.057853e-006
2.979000e+000,-9.249643e-006
2.980000e+000,-9.440971e-006
2.981000e+000,-9.625763e-006
2.982000e+000,-9.807955e-006
2.983000e+000,-9.987775e-006
2.984000e+000,-1.016390e-005
2.985000e+000,-1.033959e-005
2.986000e+000,-1.051134e-005
2.987000e+000,-1.067885e-005
2.988000e+000,-1.083945e-005
2.989000e+000,-1.099876e-005
2.990000e+000,-1.115509e-005
2.991000e+000,-1.130318e-005
2.992000e+000,-1.144557e-005
2.993000e+000,-1.158372e-005
2.994000e+000,-1.171991e-005
2.995000e+000,-1.185568e-005
2.996000e+000,-1.199106e-005
2.997000e+000,-1.212408e-005
2.998000e+000,-1.225006e-005
2.999000e+000,-1.237056e-005
3.000000e+000,-1.248554e-005
3.001000e+000,-1.259745e-005
3.002000e+000,-1.270977e-005
3.003000e+000,-1.282108e-005
3.004000e+000,-1.292807e-005
3.005000e+000,-1.303303e-005
3.006000e+000,-1.313992e-005
3.007000e+000,-1.324782e-005
3.008000e+000,-1.335401e-005
3.009000e+000,-1.345628e-005
3.010000e+000,-1.355838e-005
3.011000e+000,-1.365818e-005
3.012000e+000,-1.375162e-005
3.013000e+000,-1.383967e-005
3.014000e+000,-1.392524e-005
3.015000e+000,-1.401016e-005
3.016000e+000,-1.409257e-005
3.017000e+000,-1.417521e-005
3.018000e+000,-1.425903e-005
3.019000e+000,-1.434275e-005
3.020000e+000,-1.442348e-005
3.021000e+000,-1.450224e-005
3.022000e+000,-1.458005e-005
3.023000e+000,-1.465251e-005
3.024000e+000,-1.471600e-005
3.025000e+000,-1.477552e-005
3.026000e+000,-1.483245e-005
3.027000e+000,-1.488738e-005
3.028000e+000,-1.494159e-005
3.029000e+000,-1.499501e-005
3.030000e+000,-1.504501e-005
3.031000e+000,-1.508799e-005
3.032000e+000,-1.512008e-005
3.033000e+000,-1.513835e-005
3.034000e+000,-1.515022e-005
3.035000e+000,-1.515692e-005
3.036000e+000,-1.516051e-005
3.037000e+000,-1.516047e-005
3.038000e+000,-1.515367e-005
3.039000e+000,-1.514252e-005
3.040000e+000,-1.513118e-005
3.041000e+000,-1.512023e-005
3.042000e+000,-1.510965e-005
3.043000e+000,-1.509852e-005
3.044000e+000,-1.508525e-005
3.045000e+000,-1.507044e-005
3.046000e+000,-1.505418e-005
3.047000e+000,-1.503909e-005
3.048000e+000,-1.502571e-005
3.049000e+000,-1.501312e-005
3.050000e+000,-1.499813e-005
3.051000e+000,-1.497854e-005
3.052000e+000,-1.495570e-005
3.053000e+000,-1.492126e-005
3.054000e+000,-1.487138e-005
3.055000e+000,-1.481999e-005
3.056000e+000,-1.477029e-005
3.057000e+000,-1.472134e-005
3.058000e+000,-1.467303e-005
3.059000e+000,-1.462259e-005
3.060000e+000,-1.456833e-005
3.061000e+000,-1.451279e-005
3.062000e+000,-1.445642e-005
3.063000e+000,-1.440037e-005
3.064000e+000,-1.434151e-005
3.065000e+000,-1.427421e-005
3.066000e+000,-1.419909e-005
3.067000e+000,-1.411996e-005
3.068000e+000,-1.403456e-005
3.069000e+000,-1.393914e-005
3.070000e+000,-1.383754e-005
3.071000e+000,-1.373143e-005
3.072000e+000,-1.362089e-005
3.073000e+000,-1.350941e-005
3.074000e+000,-1.339459e-005
3.075000e+000,-1.327923e-005
3.076000e+000,-1.316812e-005
3.077000e+000,-1.305851e-005
3.078000e+000,-1.294598e-005
3.079000e+000,-1.283121e-005
3.080000e+000,-1.271615e-005
3.081000e+000,-1.260238e-005
3.082000e+000,-1.248952e-005
3.083000e+000,-1.237733e-005
3.084000e+000,-1.226197e-005
3.085000e+000,-1.214276e-005
3.086000e+000,-1.202212e-005
3.087000e+000,-1.190049e-005
3.088000e+000,-1.178015e-005
3.089000e+000,-1.165787e-005
3.090000e+000,-1.153739e-005
3.091000e+000,-1.142012e-005
3.092000e+000,-1.130476e-005
3.093000e+000,-1.118899e-005
3.094000e+000,-1.107328e-005
3.095000e+000,-1.095916e-005
3.096000e+000,-1.084677e-005
3.097000e+000,-1.073493e-005
3.098000e+000,-1.062628e-005
3.099000e+000,-1.052164e-005
3.100000e+000,-1.042081e-005
3.101000e+000,-1.032302e-005
3.102000e+000,-1.022767e-005
3.103000e+000,-1.013623e-005
3.104000e+000,-1.004900e-005
3.105000e+000,-9.965458e-006
3.106000e+000,-9.884318e-006
3.107000e+000,-9.803058e-006
3.108000e+000,-9.722518e-006
3.109000e+000,-9.645378e-006
3.110000e+000,-9.568192e-006
3.111000e+000,-9.489408e-006
3.112000e+000,-9.409925e-006
3.113000e+000,-9.331982e-006
3.114000e+000,-9.256836e-006
3.115000e+000,-9.182235e-006
3.116000e+000,-9.107087e-006
3.117000e+000,-9.032616e-006
3.118000e+000,-8.961427e-006
3.119000e+000,-8.891905e-006
3.120000e+000,-8.820439e-006
3.121000e+000,-8.747344e-006
3.122000e+000,-8.673244e-006
3.123000e+000,-8.599690e-006
3.124000e+000,-8.529275e-006
3.125000e+000,-8.462539e-006
3.126000e+000,-8.400006e-006
3.127000e+000,-8.341181e-006
3.128000e+000,-8.285864e-006
3.129000e+000,-8.232456e-006
3.130000e+000,-8.179135e-006
3.131000e+000,-8.125155e-006
3.132000e+000,-8.069169e-006
3.133000e+000,-8.009334e-006
3.134000e+000,-7.945473e-006
3.135000e+000,-7.879967e-006
3.136000e+000,-7.813284e-006
3.137000e+000,-7.743329e-006
3.138000e+000,-7.670093e-006
3.139000e+000,-7.597731e-006
3.140000e+000,-7.527250e-006
3.141000e+000,-7.459526e-006
3.142000e+000,-7.394929e-006
3.143000e+000,-7.334115e-006
3.144000e+000,-7.276898e-006
3.145000e+000,-7.223302e-006
3.146000e+000,-7.172008e-006
3.147000e+000,-7.121104e-006
3.148000e+000,-7.068983e-006
3.149000e+000,-7.012398e-006
3.150000e+000,-6.954597e-006
3.151000e+000,-6.895795e-006
3.152000e+000,-6.833968e-006
3.153000e+000,-6.772835e-006
3.154000e+000,-6.715643e-006
3.155000e+000,-6.660721e-006
3.156000e+000,-6.606201e-006
3.157000e+000,-6.552227e-006
3.158000e+000,-6.501299e-006
3.159000e+000,-6.453483e-006
3.160000e+000,-6.406639e-006
3.161000e+000,-6.359627e-006
3.162000e+000,-6.315356e-006
3.163000e+000,-6.273244e-006
3.164000e+000,-6.232542e-006
3.165000e+000,-6.194311e-006
3.166000e+000,-6.158530e-006
3.167000e+000,-6.125447e-006
3.168000e+000,-6.095245e-006
3.169000e+000,-6.066803e-006
3.170000e+000,-6.037482e-006
3.171000e+000,-6.004302e-006
3.172000e+000,-5.969510e-006
3.173000e+000,-5.934737e-006
3.174000e+000,-5.897872e-006
3.175000e+000,-5.861242e-006
3.176000e+000,-5.824675e-006
3.177000e+000,-5.786409e-006
3.178000e+000,-5.745870e-006
3.179000e+000,-5.704762e-006
3.180000e+000,-5.665418e-006
3.181000e+000,-5.628386e-006
3.182000e+000,-5.593407e-006
3.183000e+000,-5.559321e-006
3.184000e+000,-5.526274e-006
3.185000e+000,-5.493631e-006
3.186000e+000,-5.460285e-006
3.187000e+000,-5.424930e-006
3.188000e+000,-5.390012e-006
3.189000e+000,-5.355499e-006
3.190000e+000,-5.320415e-006
3.191000e+000,-5.285855e-006
3.192000e+000,-5.252090e-006
3.193000e+000,-5.218756e-006
3.194000e+000,-5.186069e-006
3.195000e+000,-5.155368e-006
3.196000e+000,-5.125804e-006
3.197000e+000,-5.096459e-006
3.198000e+000,-5.066706e-006
3.199000e+000,-5.035412e-006
3.200000e+000,-5.004412e-006
3.201000e+000,-4.972599e-006
3.202000e+000,-4.939634e-006
3.203000e+000,-4.906507e-006
3.204000e+000,-4.871429e-006
3.205000e+000,-4.831945e-006
3.206000e+000,-4.786052e-006
3.207000e+000,-4.734845e-006
3.208000e+000,-4.680626e-006
3.209000e+000,-4.626283e-006
3.210000e+000,-4.573689e-006
3.211000e+000,-4.523171e-006
3.212000e+000,-4.474959e-006
3.213000e+000,-4.428011e-006
3.214000e+000,-4.381529e-006
3.215000e+000,-4.334953e-006
3.216000e+000,-4.287756e-006
3.217000e+000,-4.240137e-006
3.218000e+000,-4.193775e-006
3.219000e+000,-4.148712e-006
3.220000e+000,-4.105792e-006
3.221000e+000,-4.064478e-006
3.222000e+000,-4.024732e-006
3.223000e+000,-3.985528e-006
3.224000e+000,-3.945212e-006
3.225000e+000,-3.905041e-006
3.226000e+000,-3.866709e-006
3.227000e+000,-3.830161e-006
3.228000e+000,-3.795718e-006
3.229000e+000,-3.763272e-006
3.230000e+000,-3.732786e-006
3.231000e+000,-3.703231e-006
3.232000e+000,-3.672019e-006
3.233000e+000,-3.640462e-006
3.234000e+000,-3.609968e-006
3.235000e+000,-3.579721e-006
3.236000e+000,-3.551324e-006
3.237000e+000,-3.523643e-006
3.238000e+000,-3.496546e-006
3.239000e+000,-3.469496e-006
3.240000e+000,-3.442423e-006
3.241000e+000,-3.416165e-006
3.242000e+000,-3.389849e-006
3.243000e+000,-3.362290e-006
3.244000e+000,-3.332409e-006
3.245000e+000,-3.299471e-006
3.246000e+000,-3.265701e-006
3.247000e+000,-3.230641e-006
3.248000e+000,-3.191836e-006
3.249000e+000,-3.150269e-006
3.250000e+000,-3.109127e-006
3.251000e+000,-3.067364e-006
3.252000e+000,-3.020007e-006
3.253000e+000,-2.967271e-006
3.254000e+000,-2.908751e-006
3.255000e+000,-2.844433e-006
3.256000e+000,-2.778260e-006
3.257000e+000,-2.714518e-006
3.258000e+000,-2.653259e-006
3.259000e+000,-2.591637e-006
3.260000e+000,-2.529277e-006
3.261000e+000,-2.466994e-006
3.262000e+000,-2.405045e-006
3.263000e+000,-2.343174e-006
3.264000e+000,-2.282384e-006
3.265000e+000,-2.223668e-006
3.266000e+000,-2.167398e-006
3.267000e+000,-2.112749e-006
3.268000e+000,-2.059981e-006
3.269000e+000,-2.008358e-006
3.270000e+000,-1.957599e-006
3.271000e+000,-1.908483e-006
3.272000e+000,-1.861153e-006
3.273000e+000,-1.816022e-006
3.274000e+000,-1.771305e-006
3.275000e+000,-1.725874e-006
3.276000e+000,-1.680692e-006
3.277000e+000,-1.637712e-006
3.278000e+000,-1.597217e-006
3.279000e+000,-1.557527e-006
3.280000e+000,-1.517709e-006
3.281000e+000,-1.474941e-006
3.282000e+000,-1.426562e-006
3.283000e+000,-1.374086e-006
3.284000e+000,-1.319876e-006
3.285000e+000,-1.263459e-006
3.286000e+000,-1.201567e-006
3.287000e+000,-1.134429e-006
3.288000e+000,-1.067712e-006
3.289000e+000,-1.003337e-006
3.290000e+000,-9.372661e-007
3.291000e+000,-8.671148e-007
3.292000e+000,-7.953903e-007
3.293000e+000,-7.250453e-007
3.294000e+000,-6.540663e-007
3.295000e+000,-5.837118e-007
3.296000e+000,-5.144047e-007
3.297000e+000,-4.471555e-007
3.298000e+000,-3.816827e-007
3.299000e+000,-3.185693e-007
3.300000e+000,-2.585783e-007
3.301000e+000,-2.014287e-007
3.302000e+000,-1.466099e-007
3.303000e+000,-9.383133e-008
3.304000e+000,-4.297796e-008
3.305000e+000,6.999857e-009
3.306000e+000,5.938037e-008
3.307000e+000,1.142397e-007
3.308000e+000,1.707086e-007
3.309000e+000,2.265265e-007
3.310000e+000,2.799413e-007
3.311000e+000,3.307210e-007
3.312000e+000,3.797167e-007
3.313000e+000,4.271598e-007
3.314000e+000,4.729925e-007
3.315000e+000,5.156836e-007
3.316000e+000,5.554856e-007
3.317000e+000,5.935827e-007
3.318000e+000,6.344377e-007
3.319000e+000,6.789937e-007
3.320000e+000,7.246829e-007
3.321000e+000,7.705272e-007
3.322000e+000,8.182290e-007
3.323000e+000,8.684700e-007
3.324000e+000,9.197610e-007
3.325000e+000,9.718394e-007
3.326000e+000,1.022002e-006
3.327000e+000,1.069187e-006
3.328000e+000,1.113730e-006
3.329000e+000,1.156131e-006
3.330000e+000,1.196556e-006
3.331000e+000,1.235199e-006
3.332000e+000,1.271346e-006
3.333000e+000,1.304877e-006
3.334000e+000,1.335731e-006
3.335000e+000,1.365439e-006
3.336000e+000,1.396189e-006
3.337000e+000,1.430759e-006
3.338000e+000,1.468408e-006
3.339000e+000,1.509374e-006
3.340000e+000,1.551178e-006
3.341000e+000,1.590742e-006
3.342000e+000,1.627259e-006
3.343000e+000,1.660512e-006
3.344000e+000,1.691234e-006
3.345000e+000,1.720287e-006
3.346000e+000,1.747502e-006
3.347000e+000,1.773905e-006
3.348000e+000,1.797895e-006
3.349000e+000,1.819080e-006
3.350000e+000,1.837649e-006
3.351000e+000,1.855171e-006
3.352000e+000,1.875167e-006
3.353000e+000,1.897373e-006
3.354000e+000,1.919653e-006
3.355000e+000,1.940222e-006
3.356000e+000,1.958588e-006
3.357000e+000,1.975532e-006
3.358000e+000,1.990973e-006
3.359000e+000,2.007863e-006
3.360000e+000,2.027074e-006
3.361000e+000,2.046313e-006
3.362000e+000,2.065232e-006
3.363000e+000,2.084389e-006
3.364000e+000,2.104370e-006
3.365000e+000,2.126172e-006
3.366000e+000,2.148500e-006
3.367000e+000,2.170216e-006
3.368000e+000,2.191548e-006
3.369000e+000,2.213494e-006
3.370000e+000,2.235717e-006
3.371000e+000,2.257054e-006
3.372000e+000,2.277301e-006
3.373000e+000,2.296543e-006
3.374000e+000,2.314643e-006
3.375000e+000,2.334066e-006
3.376000e+000,2.352409e-006
3.377000e+000,2.368076e-006
3.378000e+000,2.382523e-006
3.379000e+000,2.396265e-006
3.380000e+000,2.409679e-006
3.381000e+000,2.421758e-006
3.382000e+000,2.432623e-006
3.383000e+000,2.443698e-006
3.384000e+000,2.456826e-006
3.385000e+000,2.472950e-006
3.386000e+000,2.491457e-006
3.387000e+000,2.513399e-006
3.388000e+000,2.536606e-006
3.389000e+000,2.558221e-006
3.390000e+000,2.578515e-006
3.391000e+000,2.597494e-006
3.392000e+000,2.614553e-006
3.393000e+000,2.632269e-006
3.394000e+000,2.649868e-006
3.395000e+000,2.665826e-006
3.396000e+000,2.680038e-006
3.397000e+000,2.692262e-006
3.398000e+000,2.706209e-006
3.399000e+000,2.722395e-006
3.400000e+000,2.737280e-006
3.401000e+000,2.750409e-006
3.402000e+000,2.762530e-006
3.403000e+000,2.777556e-006
3.404000e+000,2.795097e-006
3.405000e+000,2.811735e-006
3.406000e+000,2.826548e-006
3.407000e+000,2.838598e-006
3.408000e+000,2.848710e-006
3.409000e+000,2.857293e-006
3.410000e+000,2.864621e-006
3.411000e+000,2.872474e-006
3.412000e+000,2.880159e-006
3.413000e+000,2.886848e-006
3.414000e+000,2.892797e-006
3.415000e+000,2.898134e-006
3.416000e+000,2.902722e-006
3.417000e+000,2.905754e-006
3.418000e+000,2.907305e-006
3.419000e+000,2.907595e-006
3.420000e+000,2.907088e-006
3.421000e+000,2.907681e-006
3.422000e+000,2.912715e-006
3.423000e+000,2.923755e-006
3.424000e+000,2.937324e-006
3.425000e+000,2.950019e-006
3.426000e+000,2.962278e-006
3.427000e+000,2.973006e-006
3.428000e+000,2.981558e-006
3.429000e+000,2.988736e-006
3.430000e+000,2.995294e-006
3.431000e+000,3.001372e-006
3.432000e+000,3.009498e-006
3.433000e+000,3.024844e-006
3.434000e+000,3.050017e-006
3.435000e+000,3.088222e-006
3.436000e+000,3.142693e-006
3.437000e+000,3.213906e-006
3.438000e+000,3.298926e-006
3.439000e+000,3.395178e-006
3.440000e+000,3.512338e-006
3.441000e+000,3.661355e-006
3.442000e+000,3.850828e-006
3.443000e+000,4.087291e-006
3.444000e+000,4.360393e-006
3.445000e+000,4.644785e-006
3.446000e+000,4.923733e-006
3.447000e+000,5.209374e-006
3.448000e+000,5.516994e-006
3.449000e+000,5.849625e-006
3.450000e+000,6.203478e-006
3.451000e+000,6.596334e-006
3.452000e+000,7.039267e-006
3.453000e+000,7.503864e-006
3.454000e+000,7.964838e-006
3.455000e+000,8.413966e-006
3.456000e+000,8.847904e-006
3.457000e+000,9.269861e-006
3.458000e+000,9.680228e-006
3.459000e+000,1.007569e-005
3.460000e+000,1.047008e-005
3.461000e+000,1.086077e-005
3.462000e+000,1.123574e-005
3.463000e+000,1.159671e-005
3.464000e+000,1.194168e-005
3.465000e+000,1.227570e-005
3.466000e+000,1.259650e-005
3.467000e+000,1.289635e-005
3.468000e+000,1.317818e-005
3.469000e+000,1.345156e-005
3.470000e+000,1.371631e-005
3.471000e+000,1.396136e-005
3.472000e+000,1.418972e-005
3.473000e+000,1.440973e-005
3.474000e+000,1.464354e-005
3.475000e+000,1.489445e-005
3.476000e+000,1.513773e-005
3.477000e+000,1.536763e-005
3.478000e+000,1.561115e-005
3.479000e+000,1.588416e-005
3.480000e+000,1.618032e-005
3.481000e+000,1.649624e-005
3.482000e+000,1.681804e-005
3.483000e+000,1.712220e-005
3.484000e+000,1.740541e-005
3.485000e+000,1.767978e-005
3.486000e+000,1.795076e-005
3.487000e+000,1.822457e-005
3.488000e+000,1.851225e-005
3.489000e+000,1.880969e-005
3.490000e+000,1.912066e-005
3.491000e+000,1.944596e-005
3.492000e+000,1.975734e-005
3.493000e+000,2.004548e-005
3.494000e+000,2.030981e-005
3.495000e+000,2.054592e-005
3.496000e+000,2.076213e-005
3.497000e+000,2.097219e-005
3.498000e+000,2.118120e-005
3.499000e+000,2.138678e-005
3.500000e+000,2.159686e-005
3.501000e+000,2.180696e-005
3.502000e+000,2.200570e-005
3.503000e+000,2.218892e-005
3.504000e+000,2.236746e-005
3.505000e+000,2.253613e-005
3.506000e+000,2.267996e-005
3.507000e+000,2.279823e-005
3.508000e+000,2.289160e-005
3.509000e+000,2.296647e-005
3.510000e+000,2.302105e-005
3.511000e+000,2.304870e-005
3.512000e+000,2.304987e-005
3.513000e+000,2.302974e-005
3.514000e+000,2.299163e-005
3.515000e+000,2.293535e-005
3.516000e+000,2.285949e-005
3.517000e+000,2.276266e-005
3.518000e+000,2.264332e-005
3.519000e+000,2.250326e-005
3.520000e+000,2.234531e-005
3.521000e+000,2.217127e-005
3.522000e+000,2.197839e-005
3.523000e+000,2.176963e-005
3.524000e+000,2.155669e-005
3.525000e+000,2.134908e-005
3.526000e+000,2.114944e-005
3.527000e+000,2.095527e-005
3.528000e+000,2.077556e-005
3.529000e+000,2.063335e-005
3.530000e+000,2.053959e-005
3.531000e+000,2.047229e-005
3.532000e+000,2.039977e-005
3.533000e+000,2.033802e-005
3.534000e+000,2.030811e-005
3.535000e+000,2.029949e-005
3.536000e+000,2.031547e-005
3.537000e+000,2.035291e-005
3.538000e+000,2.039261e-005
3.539000e+000,2.042511e-005
3.540000e+000,2.043851e-005
3.541000e+000,2.042972e-005
3.542000e+000,2.040350e-005
3.543000e+000,2.035979e-005
3.544000e+000,2.029811e-005
3.545000e+000,2.021562e-005
3.546000e+000,2.011071e-005
3.547000e+000,1.998903e-005
3.548000e+000,1.985225e-005
3.549000e+000,1.970231e-005
3.550000e+000,1.953822e-005
3.551000e+000,1.935725e-005
3.552000e+000,1.917113e-005
3.553000e+000,1.898355e-005
3.554000e+000,1.878770e-005
3.555000e+000,1.857931e-005
3.556000e+000,1.835373e-005
3.557000e+000,1.811082e-005
3.558000e+000,1.785512e-005
3.559000e+000,1.759373e-005
3.560000e+000,1.732926e-005
3.561000e+000,1.706582e-005
3.562000e+000,1.681613e-005
3.563000e+000,1.656619e-005
3.564000e+000,1.630589e-005
3.565000e+000,1.603317e-005
3.566000e+000,1.574761e-005
3.567000e+000,1.545006e-005
3.568000e+000,1.514160e-005
3.569000e+000,1.482254e-005
3.570000e+000,1.449367e-005
3.571000e+000,1.415439e-005
3.572000e+000,1.381024e-005
3.573000e+000,1.346878e-005
3.574000e+000,1.313104e-005
3.575000e+000,1.279765e-005
3.576000e+000,1.246038e-005
3.577000e+000,1.211232e-005
3.578000e+000,1.175475e-005
3.579000e+000,1.139527e-005
3.580000e+000,1.104290e-005
3.581000e+000,1.071340e-005
3.582000e+000,1.043621e-005
3.583000e+000,1.022643e-005
3.584000e+000,1.007666e-005
3.585000e+000,9.950916e-006
3.586000e+000,9.859643e-006
3.587000e+000,9.822391e-006
3.588000e+000,9.818146e-006
3.589000e+000,9.827920e-006
3.590000e+000,9.853780e-006
3.591000e+000,9.923311e-006
3.592000e+000,1.001528e-005
3.593000e+000,1.015234e-005
3.594000e+000,1.035257e-005
3.595000e+000,1.058809e-005
3.596000e+000,1.084221e-005
3.597000e+000,1.108629e-005
3.598000e+000,1.131484e-005
3.599000e+000,1.153764e-005
3.600000e+000,1.176018e-005
3.601000e+000,1.196697e-005
3.602000e+000,1.214796e-005
3.603000e+000,1.230835e-005
3.604000e+000,1.244199e-005
3.605000e+000,1.254445e-005
3.606000e+000,1.261896e-005
3.607000e+000,1.266969e-005
3.608000e+000,1.269708e-005
3.609000e+000,1.270426e-005
3.610000e+000,1.269379e-005
3.611000e+000,1.266839e-005
3.612000e+000,1.263452e-005
3.613000e+000,1.259820e-005
3.614000e+000,1.255656e-005
3.615000e+000,1.250755e-005
3.616000e+000,1.245059e-005
3.617000e+000,1.238328e-005
3.618000e+000,1.230369e-005
3.619000e+000,1.221821e-005
3.620000e+000,1.213230e-005
3.621000e+000,1.204662e-005
3.622000e+000,1.196614e-005
3.623000e+000,1.190327e-005
3.624000e+000,1.187380e-005
3.625000e+000,1.188056e-005
3.626000e+000,1.189605e-005
3.627000e+000,1.190828e-005
3.628000e+000,1.193283e-005
3.629000e+000,1.195362e-005
3.630000e+000,1.195666e-005
3.631000e+000,1.194702e-005
3.632000e+000,1.192344e-005
3.633000e+000,1.187903e-005
3.634000e+000,1.181169e-005
3.635000e+000,1.172987e-005
3.636000e+000,1.163916e-005
3.637000e+000,1.153811e-005
3.638000e+000,1.143252e-005
3.639000e+000,1.131746e-005
3.640000e+000,1.118751e-005
3.641000e+000,1.104433e-005
3.642000e+000,1.089440e-005
3.643000e+000,1.074541e-005
3.644000e+000,1.061406e-005
3.645000e+000,1.050869e-005
3.646000e+000,1.041688e-005
3.647000e+000,1.032738e-005
3.648000e+000,1.023518e-005
3.649000e+000,1.013765e-005
3.650000e+000,1.002487e-005
3.651000e+000,9.902203e-006
3.652000e+000,9.789030e-006
3.653000e+000,9.674643e-006
3.654000e+000,9.542462e-006
3.655000e+000,9.401483e-006
3.656000e+000,9.278564e-006
3.657000e+000,9.183010e-006
3.658000e+000,9.091261e-006
3.659000e+000,8.990241e-006
3.660000e+000,8.877749e-006
3.661000e+000,8.750268e-006
3.662000e+000,8.614076e-006
3.663000e+000,8.463130e-006
3.664000e+000,8.295746e-006
3.665000e+000,8.115622e-006
3.666000e+000,7.917218e-006
3.667000e+000,7.699569e-006
3.668000e+000,7.464461e-006
3.669000e+000,7.211594e-006
3.670000e+000,6.943156e-006
3.671000e+000,6.660690e-006
3.672000e+000,6.366383e-006
3.673000e+000,6.063403e-006
3.674000e+000,5.752360e-006
3.675000e+000,5.431825e-006
3.676000e+000,5.102695e-006
3.677000e+000,4.767576e-006
3.678000e+000,4.424494e-006
3.679000e+000,4.071176e-006
3.680000e+000,3.708126e-006
3.681000e+000,3.333942e-006
3.682000e+000,2.949826e-006
3.683000e+000,2.555870e-006
3.684000e+000,2.151938e-006
3.685000e+000,1.738048e-006
3.686000e+000,1.315997e-006
3.687000e+000,8.874366e-007
3.688000e+000,4.512781e-007
3.689000e+000,8.671692e-009
3.690000e+000,-4.390176e-007
3.691000e+000,-8.901568e-007
3.692000e+000,-1.344587e-006
3.693000e+000,-1.802957e-006
3.694000e+000,-2.265870e-006
3.695000e+000,-2.731567e-006
3.696000e+000,-3.196519e-006
3.697000e+000,-3.661142e-006
3.698000e+000,-4.122236e-006
3.699000e+000,-4.580152e-006
3.700000e+000,-5.034122e-006
3.701000e+000,-5.479106e-006
3.702000e+000,-5.908381e-006
3.703000e+000,-6.325562e-006
3.704000e+000,-6.740145e-006
3.705000e+000,-7.151681e-006
3.706000e+000,-7.558172e-006
3.707000e+000,-7.957951e-006
3.708000e+000,-8.352778e-006
3.709000e+000,-8.746400e-006
3.710000e+000,-9.137376e-006
3.711000e+000,-9.522933e-006
3.712000e+000,-9.899455e-006
3.713000e+000,-1.026896e-005
3.714000e+000,-1.063486e-005
3.715000e+000,-1.099839e-005
3.716000e+000,-1.135655e-005
3.717000e+000,-1.170413e-005
3.718000e+000,-1.204316e-005
3.719000e+000,-1.237889e-005
3.720000e+000,-1.271079e-005
3.721000e+000,-1.304089e-005
3.722000e+000,-1.336920e-005
3.723000e+000,-1.369526e-005
3.724000e+000,-1.401894e-005
3.725000e+000,-1.433788e-005
3.726000e+000,-1.464997e-005
3.727000e+000,-1.495572e-005
3.728000e+000,-1.525708e-005
3.729000e+000,-1.555505e-005
3.730000e+000,-1.584940e-005
3.731000e+000,-1.613849e-005
3.732000e+000,-1.641651e-005
3.733000e+000,-1.668514e-005
3.734000e+000,-1.695046e-005
3.735000e+000,-1.721264e-005
3.736000e+000,-1.747122e-005
3.737000e+000,-1.772534e-005
3.738000e+000,-1.797314e-005
3.739000e+000,-1.821235e-005
3.740000e+000,-1.844510e-005
3.741000e+000,-1.867336e-005
3.742000e+000,-1.889565e-005
3.743000e+000,-1.910939e-005
3.744000e+000,-1.931399e-005
3.745000e+000,-1.951016e-005
3.746000e+000,-1.969985e-005
3.747000e+000,-1.988116e-005
3.748000e+000,-2.005405e-005
3.749000e+000,-2.021926e-005
3.750000e+000,-2.037718e-005
3.751000e+000,-2.052969e-005
3.752000e+000,-2.067529e-005
3.753000e+000,-2.080991e-005
3.754000e+000,-2.093299e-005
3.755000e+000,-2.104574e-005
3.756000e+000,-2.115112e-005
3.757000e+000,-2.124775e-005
3.758000e+000,-2.133640e-005
3.759000e+000,-2.142002e-005
3.760000e+000,-2.149891e-005
3.761000e+000,-2.157213e-005
3.762000e+000,-2.163847e-005
3.763000e+000,-2.169922e-005
3.764000e+000,-2.175199e-005
3.765000e+000,-2.179609e-005
3.766000e+000,-2.183484e-005
3.767000e+000,-2.187051e-005
3.768000e+000,-2.190344e-005
3.769000e+000,-2.193237e-005
3.770000e+000,-2.195539e-005
3.771000e+000,-2.197486e-005
3.772000e+000,-2.199088e-005
3.773000e+000,-2.200196e-005
3.774000e+000,-2.200832e-005
3.775000e+000,-2.200905e-005
3.776000e+000,-2.200320e-005
3.777000e+000,-2.199291e-005
3.778000e+000,-2.198058e-005
3.779000e+000,-2.196542e-005
3.780000e+000,-2.194659e-005
3.781000e+000,-2.192034e-005
3.782000e+000,-2.188408e-005
3.783000e+000,-2.184092e-005
3.784000e+000,-2.179273e-005
3.785000e+000,-2.173956e-005
3.786000e+000,-2.168263e-005
3.787000e+000,-2.162307e-005
3.788000e+000,-2.156127e-005
3.789000e+000,-2.149721e-005
3.790000e+000,-2.143038e-005
3.791000e+000,-2.136052e-005
3.792000e+000,-2.128725e-005
3.793000e+000,-2.120970e-005
3.794000e+000,-2.112814e-005
3.795000e+000,-2.104511e-005
3.796000e+000,-2.096184e-005
3.797000e+000,-2.087669e-005
3.798000e+000,-2.078701e-005
3.799000e+000,-2.069231e-005
3.800000e+000,-2.059374e-005
3.801000e+000,-2.048912e-005
3.802000e+000,-2.037408e-005
3.803000e+000,-2.024847e-005
3.804000e+000,-2.011274e-005
3.805000e+000,-1.996891e-005
3.806000e+000,-1.981648e-005
3.807000e+000,-1.965882e-005
3.808000e+000,-1.950124e-005
3.809000e+000,-1.934449e-005
3.810000e+000,-1.918704e-005
3.811000e+000,-1.902999e-005
3.812000e+000,-1.887452e-005
3.813000e+000,-1.871884e-005
3.814000e+000,-1.856187e-005
3.815000e+000,-1.840578e-005
3.816000e+000,-1.825134e-005
3.817000e+000,-1.809887e-005
3.818000e+000,-1.794630e-005
3.819000e+000,-1.779474e-005
3.820000e+000,-1.764581e-005
3.821000e+000,-1.749922e-005
3.822000e+000,-1.735381e-005
3.823000e+000,-1.720847e-005
3.824000e+000,-1.706416e-005
3.825000e+000,-1.692172e-005
3.826000e+000,-1.678186e-005
3.827000e+000,-1.664496e-005
3.828000e+000,-1.651125e-005
3.829000e+000,-1.638047e-005
3.830000e+000,-1.625018e-005
3.831000e+000,-1.611717e-005
3.832000e+000,-1.598382e-005
3.833000e+000,-1.585144e-005
3.834000e+000,-1.571928e-005
3.835000e+000,-1.558821e-005
3.836000e+000,-1.545813e-005
3.837000e+000,-1.532759e-005
3.838000e+000,-1.519649e-005
3.839000e+000,-1.506738e-005
3.840000e+000,-1.494115e-005
3.841000e+000,-1.481743e-005
3.842000e+000,-1.469574e-005
3.843000e+000,-1.457578e-005
3.844000e+000,-1.445598e-005
3.845000e+000,-1.433246e-005
3.846000e+000,-1.420251e-005
3.847000e+000,-1.406845e-005
3.848000e+000,-1.393640e-005
3.849000e+000,-1.380769e-005
3.850000e+000,-1.368102e-005
3.851000e+000,-1.355368e-005
3.852000e+000,-1.342516e-005
3.853000e+000,-1.329693e-005
3.854000e+000,-1.316414e-005
3.855000e+000,-1.302906e-005
3.856000e+000,-1.289560e-005
3.857000e+000,-1.276272e-005
3.858000e+000,-1.263172e-005
3.859000e+000,-1.250403e-005
3.860000e+000,-1.237982e-005
3.861000e+000,-1.225954e-005
3.862000e+000,-1.214273e-005
3.863000e+000,-1.202930e-005
3.864000e+000,-1.191890e-005
3.865000e+000,-1.181065e-005
3.866000e+000,-1.170450e-005
3.867000e+000,-1.160134e-005
3.868000e+000,-1.150136e-005
3.869000e+000,-1.140409e-005
3.870000e+000,-1.130938e-005
3.871000e+000,-1.121647e-005
3.872000e+000,-1.112597e-005
3.873000e+000,-1.103764e-005
3.874000e+000,-1.095080e-005
3.875000e+000,-1.086515e-005
3.876000e+000,-1.077725e-005
3.877000e+000,-1.068629e-005
3.878000e+000,-1.059486e-005
3.879000e+000,-1.050541e-005
3.880000e+000,-1.041842e-005
3.881000e+000,-1.033360e-005
3.882000e+000,-1.025125e-005
3.883000e+000,-1.017010e-005
3.884000e+000,-1.008970e-005
3.885000e+000,-1.001007e-005
3.886000e+000,-9.928452e-006
3.887000e+000,-9.844500e-006
3.888000e+000,-9.758801e-006
3.889000e+000,-9.669495e-006
3.890000e+000,-9.576461e-006
3.891000e+000,-9.480676e-006
3.892000e+000,-9.381907e-006
3.893000e+000,-9.281777e-006
3.894000e+000,-9.181384e-006
3.895000e+000,-9.080608e-006
3.896000e+000,-8.981154e-006
3.897000e+000,-8.880831e-006
3.898000e+000,-8.777416e-006
3.899000e+000,-8.671788e-006
3.900000e+000,-8.564121e-006
3.901000e+000,-8.454818e-006
3.902000e+000,-8.347391e-006
3.903000e+000,-8.238055e-006
3.904000e+000,-8.126311e-006
3.905000e+000,-8.013745e-006
3.906000e+000,-7.900164e-006
3.907000e+000,-7.788762e-006
3.908000e+000,-7.679961e-006
3.909000e+000,-7.573551e-006
3.910000e+000,-7.467846e-006
3.911000e+000,-7.359323e-006
3.912000e+000,-7.249558e-006
3.913000e+000,-7.142022e-006
3.914000e+000,-7.037006e-006
3.915000e+000,-6.933260e-006
3.916000e+000,-6.832314e-006
3.917000e+000,-6.733054e-006
3.918000e+000,-6.634772e-006
3.919000e+000,-6.538354e-006
3.920000e+000,-6.443652e-006
3.921000e+000,-6.352760e-006
3.922000e+000,-6.266025e-006
3.923000e+000,-6.182451e-006
3.924000e+000,-6.101482e-006
3.925000e+000,-6.021766e-006
3.926000e+000,-5.943311e-006
3.927000e+000,-5.867303e-006
3.928000e+000,-5.793295e-006
3.929000e+000,-5.721888e-006
3.930000e+000,-5.653392e-006
3.931000e+000,-5.587216e-006
3.932000e+000,-5.521423e-006
3.933000e+000,-5.456940e-006
3.934000e+000,-5.394050e-006
3.935000e+000,-5.331849e-006
3.936000e+000,-5.271306e-006
3.937000e+000,-5.210861e-006
3.938000e+000,-5.149331e-006
3.939000e+000,-5.087292e-006
3.940000e+000,-5.023658e-006
3.941000e+000,-4.960258e-006
3.942000e+000,-4.899189e-006
3.943000e+000,-4.840138e-006
3.944000e+000,-4.782353e-006
3.945000e+000,-4.724440e-006
3.946000e+000,-4.664389e-006
3.947000e+000,-4.602150e-006
3.948000e+000,-4.540281e-006
3.949000e+000,-4.480329e-006
3.950000e+000,-4.421879e-006
3.951000e+000,-4.364455e-006
3.952000e+000,-4.308791e-006
3.953000e+000,-4.251945e-006
3.954000e+000,-4.192054e-006
3.955000e+000,-4.130721e-006
3.956000e+000,-4.068968e-006
3.957000e+000,-4.007892e-006
3.958000e+000,-3.946252e-006
3.959000e+000,-3.885175e-006
3.960000e+000,-3.826931e-006
3.961000e+000,-3.771058e-006
3.962000e+000,-3.716331e-006
3.963000e+000,-3.660185e-006
3.964000e+000,-3.602770e-006
3.965000e+000,-3.546739e-006
3.966000e+000,-3.488973e-006
3.967000e+000,-3.430748e-006
3.968000e+000,-3.374293e-006
3.969000e+000,-3.316567e-006
3.970000e+000,-3.258547e-006
3.971000e+000,-3.201984e-006
3.972000e+000,-3.147286e-006
3.973000e+000,-3.094890e-006
3.974000e+000,-3.043442e-006
3.975000e+000,-2.992707e-006
3.976000e+000,-2.944099e-006
3.977000e+000,-2.897965e-006
3.978000e+000,-2.855022e-006
3.979000e+000,-2.814639e-006
3.980000e+000,-2.776409e-006
3.981000e+000,-2.739527e-006
3.982000e+000,-2.704034e-006
3.983000e+000,-2.670343e-006
3.984000e+000,-2.638118e-006
3.985000e+000,-2.606683e-006
3.986000e+000,-2.576082e-006
3.987000e+000,-2.546701e-006
3.988000e+000,-2.517865e-006
3.989000e+000,-2.488444e-006
3.990000e+000,-2.457651e-006
3.991000e+000,-2.426314e-006
3.992000e+000,-2.396758e-006
3.993000e+000,-2.368816e-006
3.994000e+000,-2.342380e-006
3.995000e+000,-2.317505e-006
3.996000e+000,-2.294022e-006
3.997000e+000,-2.271280e-006
3.998000e+000,-2.249823e-006
3.999000e+000,-2.228410e-006
4.000000e+000,-2.204623e-006
4.001000e+000,-2.180259e-006
4.002000e+000,-2.154532e-006
4.003000e+000,-2.124189e-006
4.004000e+000,-2.091060e-006
4.005000e+000,-2.055608e-006
4.006000e+000,-2.015989e-006
4.007000e+000,-1.972683e-006
4.008000e+000,-1.925003e-006
4.009000e+000,-1.874732e-006
4.010000e+000,-1.823785e-006
4.011000e+000,-1.774246e-006
4.012000e+000,-1.726645e-006
4.013000e+000,-1.680373e-006
4.014000e+000,-1.634758e-006
4.015000e+000,-1.588712e-006
4.016000e+000,-1.540515e-006
4.017000e+000,-1.491818e-006
4.018000e+000,-1.443761e-006
4.019000e+000,-1.396894e-006
4.020000e+000,-1.351353e-006
4.021000e+000,-1.307433e-006
4.022000e+000,-1.264143e-006
4.023000e+000,-1.219484e-006
4.024000e+000,-1.170463e-006
4.025000e+000,-1.118612e-006
4.026000e+000,-1.066541e-006
4.027000e+000,-1.013483e-006
4.028000e+000,-9.580132e-007
4.029000e+000,-9.018979e-007
4.030000e+000,-8.461311e-007
4.031000e+000,-7.893643e-007
4.032000e+000,-7.325515e-007
4.033000e+000,-6.735383e-007
4.034000e+000,-6.130660e-007
4.035000e+000,-5.539342e-007
4.036000e+000,-4.971853e-007
4.037000e+000,-4.423195e-007
4.038000e+000,-3.894074e-007
4.039000e+000,-3.385569e-007
4.040000e+000,-2.902651e-007
4.041000e+000,-2.442533e-007
4.042000e+000,-1.984275e-007
4.043000e+000,-1.531320e-007
4.044000e+000,-1.076091e-007
4.045000e+000,-5.817364e-008
4.046000e+000,-5.005659e-009
4.047000e+000,5.448513e-008
4.048000e+000,1.218967e-007
4.049000e+000,1.928263e-007
4.050000e+000,2.628418e-007
4.051000e+000,3.327779e-007
4.052000e+000,4.051872e-007
4.053000e+000,4.799308e-007
4.054000e+000,5.543370e-007
4.055000e+000,6.276764e-007
4.056000e+000,7.018406e-007
4.057000e+000,7.781745e-007
